8;-461;1
8;-467;1
8;-522;1
8;-505;1
8;-511;1
8;-483;1
8;-489;1
8;-478;1
8;-493;1
8;-499;1
8;-540;1
8;-503;1
8;-479;1
8;-483;1
8;-516;1
8;-512;1
8;-532;1
8;-547;1
8;-523;1
8;-509;1
8;-504;1
8;-523;1
8;-558;1
8;-529;1
8;-537;1
8;-515;1
8;-526;1
8;-512;1
8;-541;1
8;-547;1
8;-568;1
8;-515;1
8;-520;1
8;-517;1
8;-538;1
8;-551;1
8;-565;1
8;-549;1
8;-549;1
8;-507;1
8;-522;1
8;-565;1
8;-558;1
8;-540;1
8;-546;1
8;-513;1
8;-513;1
8;-535;1
61;-537;1
61;-561;1
61;-551;1
61;-506;1
61;-522;1
61;-520;1
61;-553;1
61;-545;1
61;-559;1
61;-535;1
61;-519;1
61;-512;1
61;-518;1
61;-550;1
61;-555;1
61;-521;1
61;-528;1
61;-498;1
61;-514;1
61;-529;1
61;-564;1
61;-553;1
61;-529;1
61;-488;1
61;-512;1
61;-528;1
61;-550;1
61;-530;1
61;-540;1
61;-535;1
61;-489;1
61;-498;1
61;-532;1
61;-540;1
61;-527;1
61;-518;1
61;-501;1
61;-497;1
61;-510;1
61;-510;1
61;-544;1
61;-543;1
61;-487;1
61;-489;1
61;-521;1
61;-514;1
61;-542;1
61;-523;1
61;-528;1
61;-501;1
61;-498;1
61;-505;1
61;-552;1
61;-526;1
117;-520;1
117;-510;1
117;-514;1
117;-493;1
117;-510;1
117;-546;1
117;-537;1
117;-513;1
117;-506;1
117;-498;1
117;-520;1
117;-539;1
117;-521;1
117;-524;1
117;-521;1
117;-470;1
117;-478;1
117;-530;1
117;-535;1
117;-515;1
117;-497;1
117;-487;1
117;-503;1
117;-499;1
117;-523;1
117;-534;1
117;-532;1
117;-484;1
117;-490;1
117;-495;1
117;-520;1
117;-515;1
117;-539;1
117;-510;1
117;-510;1
117;-470;1
117;-518;1
117;-523;1
117;-542;1
117;-504;1
117;-514;1
117;-492;1
117;-517;1
117;-500;1
117;-540;1
117;-544;1
117;-521;1
117;-485;1
117;-507;1
117;-522;1
117;-542;1
117;-526;1
117;-535;1
117;-531;1
196;-492;1
196;-492;1
196;-538;1
196;-542;1
196;-546;1
196;-515;1
196;-512;1
196;-515;1
196;-527;1
196;-526;1
196;-552;1
196;-556;1
196;-512;1
196;-509;1
196;-536;1
196;-530;1
196;-561;1
196;-545;1
196;-543;1
196;-525;1
196;-513;1
196;-521;1
196;-571;1
196;-551;1
196;-541;1
196;-532;1
196;-537;1
196;-523;1
196;-550;1
196;-557;1
196;-592;1
196;-536;1
196;-536;1
196;-521;1
196;-562;1
196;-555;1
196;-568;1
196;-570;1
196;-570;1
196;-526;1
196;-536;1
196;-554;1
196;-589;1
196;-557;1
196;-563;1
196;-531;1
196;-537;1
196;-543;1
217;-548;1
217;-575;1
217;-559;1
217;-531;1
217;-523;1
217;-548;1
217;-551;1
217;-554;1
217;-571;1
217;-547;1
217;-550;1
217;-518;1
217;-543;1
217;-579;1
217;-588;1
217;-552;1
217;-554;1
217;-527;1
217;-538;1
217;-547;1
217;-575;1
217;-576;1
217;-555;1
217;-519;1
217;-542;1
217;-533;1
217;-569;1
217;-551;1
217;-570;1
217;-540;1
217;-529;1
217;-529;1
217;-583;1
217;-577;1
217;-578;1
217;-581;1
217;-551;1
217;-556;1
217;-575;1
217;-578;1
217;-621;1
217;-609;1
217;-581;1
217;-567;1
217;-582;1
217;-598;1
217;-598;1
217;-600;1
270;-590;1
270;-571;1
270;-564;1
270;-563;1
270;-612;1
270;-599;1
270;-585;1
270;-575;1
270;-579;1
270;-556;1
270;-587;1
270;-588;1
270;-621;1
270;-570;1
270;-566;1
270;-549;1
270;-566;1
270;-583;1
270;-570;1
270;-577;1
270;-579;1
270;-533;1
270;-538;1
270;-556;1
270;-575;1
270;-560;1
270;-556;1
270;-521;1
270;-538;1
270;-522;1
270;-558;1
270;-554;1
270;-575;1
270;-519;1
270;-523;1
270;-549;1
270;-551;1
270;-555;1
270;-574;1
270;-555;1
270;-558;1
270;-524;1
270;-548;1
270;-573;1
270;-588;1
270;-560;1
270;-558;1
270;-539;1
270;-542;1
270;-552;1
270;-586;1
270;-585;1
270;-559;1
270;-549;1
322;-538;1
322;-563;1
322;-588;1
322;-571;1
322;-589;1
322;-547;1
322;-543;1
322;-529;1
322;-580;1
322;-577;1
322;-574;1
322;-568;1
322;-537;1
322;-542;1
322;-552;1
322;-546;1
322;-580;1
322;-554;1
322;-528;1
322;-500;1
322;-527;1
322;-515;1
322;-540;1
322;-533;1
322;-541;1
322;-541;1
322;-541;1
322;-541;1
322;-541;1
322;-541;1
322;-541;1
322;-541;1
322;-541;1
322;-541;1
322;-541;1
322;-541;1
322;-541;1
322;-510;1
322;-517;1
322;-511;1
322;-539;1
322;-565;1
322;-620;1
322;-632;1
322;-663;1
322;-696;1
322;-791;1
322;-836;1
322;-892;1
322;-909;1
322;-912;1
322;-866;1
322;-862;1
322;-889;1
322;-890;1
322;-834;1
322;-768;1
322;-676;1
322;-636;1
322;-624;1
376;-574;1
376;-523;1
376;-437;1
376;-329;1
376;-303;1
376;-343;1
376;-359;1
376;-407;1
376;-407;1
376;-435;1
376;-432;1
376;-430;1
376;-457;1
376;-498;1
376;-544;1
376;-528;1
376;-538;1
376;-549;1
376;-539;1
376;-558;1
376;-603;1
376;-606;1
376;-587;1
376;-539;1
376;-541;1
376;-531;1
376;-553;1
376;-527;1
376;-544;1
376;-510;1
376;-503;1
376;-492;1
376;-536;1
376;-541;1
376;-546;1
376;-518;1
376;-526;1
376;-502;1
376;-519;1
376;-511;1
376;-542;1
376;-560;1
376;-499;1
376;-487;1
376;-516;1
376;-500;1
376;-514;1
376;-509;1
432;-519;1
432;-480;1
432;-475;1
432;-475;1
432;-515;1
432;-528;1
432;-514;1
432;-503;1
432;-503;1
432;-491;1
432;-507;1
432;-538;1
432;-546;1
432;-520;1
432;-503;1
432;-476;1
432;-501;1
432;-522;1
432;-512;1
432;-507;1
432;-519;1
432;-478;1
432;-463;1
432;-511;1
432;-512;1
432;-520;1
432;-521;1
432;-498;1
432;-517;1
432;-503;1
432;-539;1
432;-543;1
432;-574;1
432;-518;1
432;-522;1
432;-523;1
432;-557;1
432;-539;1
432;-557;1
432;-526;1
432;-513;1
432;-483;1
432;-491;1
432;-497;1
432;-519;1
432;-483;1
432;-469;1
432;-455;1
432;-452;1
432;-447;1
432;-483;1
432;-481;1
432;-470;1
432;-447;1
484;-436;1
484;-454;1
484;-480;1
484;-471;1
484;-482;1
484;-485;1
484;-442;1
484;-430;1
484;-473;1
484;-481;1
484;-499;1
484;-463;1
484;-461;1
484;-464;1
484;-474;1
484;-476;1
484;-518;1
484;-510;1
484;-492;1
484;-453;1
484;-484;1
484;-474;1
484;-496;1
484;-509;1
484;-486;1
484;-476;1
484;-464;1
484;-451;1
484;-499;1
484;-512;1
484;-508;1
484;-484;1
484;-496;1
484;-484;1
484;-507;1
484;-525;1
484;-549;1
484;-543;1
484;-500;1
484;-495;1
484;-529;1
484;-530;1
484;-543;1
484;-533;1
484;-528;1
484;-491;1
484;-472;1
484;-513;1
539;-516;1
539;-514;1
539;-514;1
539;-480;1
539;-497;1
539;-478;1
539;-505;1
539;-508;1
539;-541;1
539;-475;1
539;-474;1
539;-473;1
539;-508;1
539;-496;1
539;-519;1
539;-498;1
539;-495;1
539;-453;1
539;-476;1
539;-499;1
539;-532;1
539;-508;1
539;-514;1
539;-481;1
539;-498;1
539;-489;1
539;-525;1
539;-529;1
539;-531;1
539;-492;1
539;-489;1
539;-502;1
539;-516;1
539;-506;1
539;-524;1
539;-502;1
539;-486;1
539;-457;1
539;-499;1
539;-509;1
539;-515;1
539;-509;1
539;-478;1
539;-483;1
539;-499;1
539;-486;1
539;-515;1
539;-545;1
539;-484;1
539;-472;1
539;-490;1
539;-482;1
539;-510;1
539;-493;1
591;-512;1
591;-479;1
591;-476;1
591;-447;1
591;-502;1
591;-496;1
591;-495;1
591;-483;1
591;-498;1
591;-472;1
591;-499;1
591;-502;1
591;-525;1
591;-518;1
591;-500;1
591;-482;1
591;-500;1
591;-511;1
591;-519;1
591;-528;1
591;-513;1
591;-504;1
591;-475;1
591;-512;1
591;-533;1
591;-538;1
591;-537;1
591;-510;1
591;-527;1
591;-514;1
591;-543;1
591;-554;1
591;-585;1
591;-537;1
591;-540;1
591;-538;1
591;-551;1
591;-560;1
591;-571;1
591;-546;1
591;-550;1
591;-534;1
591;-510;1
591;-546;1
591;-578;1
591;-540;1
591;-543;1
591;-520;1
591;-533;1
591;-517;1
591;-549;1
591;-549;1
591;-550;1
591;-523;1
640;-511;1
640;-508;1
640;-543;1
640;-538;1
640;-536;1
640;-526;1
640;-509;1
640;-475;1
640;-519;1
640;-522;1
640;-543;1
640;-517;1
640;-516;1
640;-494;1
640;-511;1
640;-498;1
640;-537;1
640;-532;1
640;-521;1
640;-482;1
640;-508;1
640;-499;1
640;-529;1
640;-510;1
640;-519;1
640;-508;1
640;-499;1
640;-470;1
640;-518;1
640;-547;1
640;-518;1
640;-515;1
640;-513;1
640;-492;1
640;-511;1
640;-503;1
640;-533;1
640;-519;1
640;-494;1
640;-465;1
640;-491;1
640;-508;1
640;-526;1
640;-512;1
640;-535;1
640;-498;1
640;-484;1
640;-529;1
640;-549;1
640;-554;1
640;-556;1
640;-525;1
640;-545;1
640;-528;1
691;-535;1
691;-558;1
691;-586;1
691;-525;1
691;-524;1
691;-507;1
691;-537;1
691;-529;1
691;-549;1
691;-531;1
691;-532;1
691;-487;1
691;-484;1
691;-527;1
691;-555;1
691;-522;1
691;-518;1
691;-515;1
691;-494;1
691;-511;1
691;-535;1
691;-535;1
691;-539;1
691;-512;1
691;-489;1
691;-513;1
691;-541;1
691;-527;1
691;-547;1
691;-535;1
691;-535;1
691;-490;1
691;-531;1
691;-545;1
691;-566;1
691;-536;1
691;-538;1
691;-520;1
691;-526;1
691;-520;1
691;-545;1
691;-579;1
742;-527;1
742;-507;1
742;-523;1
742;-514;1
742;-533;1
742;-554;1
742;-528;1
742;-531;1
742;-520;1
742;-489;1
742;-542;1
742;-543;1
742;-544;1
742;-533;1
742;-540;1
742;-528;1
742;-550;1
742;-541;1
742;-578;1
742;-581;1
742;-555;1
742;-527;1
742;-537;1
742;-572;1
742;-552;1
742;-562;1
742;-564;1
742;-524;1
742;-501;1
742;-513;1
742;-558;1
742;-544;1
742;-542;1
742;-509;1
742;-513;1
742;-519;1
742;-525;1
742;-543;1
742;-584;1
742;-535;1
742;-527;1
742;-521;1
742;-550;1
742;-549;1
742;-568;1
742;-554;1
742;-551;1
742;-520;1
742;-509;1
742;-548;1
742;-581;1
742;-546;1
742;-534;1
742;-538;1
793;-512;1
793;-528;1
793;-551;1
793;-551;1
793;-568;1
793;-509;1
793;-519;1
793;-516;1
793;-547;1
793;-534;1
793;-550;1
793;-530;1
793;-534;1
793;-487;1
793;-520;1
793;-530;1
793;-560;1
793;-521;1
793;-532;1
793;-506;1
793;-527;1
793;-528;1
793;-545;1
793;-567;1
793;-535;1
793;-510;1
793;-527;1
793;-522;1
793;-543;1
793;-557;1
793;-526;1
793;-526;1
793;-519;1
793;-483;1
793;-534;1
793;-538;1
793;-531;1
793;-522;1
793;-527;1
793;-506;1
793;-515;1
793;-542;1
793;-542;1
793;-559;1
793;-532;1
793;-501;1
793;-534;1
793;-530;1
843;-564;1
843;-541;1
843;-563;1
843;-525;1
843;-523;1
843;-516;1
843;-559;1
843;-553;1
843;-559;1
843;-527;1
843;-537;1
843;-515;1
843;-549;1
843;-546;1
843;-588;1
843;-542;1
843;-538;1
843;-529;1
843;-546;1
843;-554;1
843;-567;1
843;-552;1
843;-547;1
843;-532;1
843;-500;1
843;-537;1
843;-572;1
843;-544;1
843;-548;1
843;-516;1
843;-525;1
843;-526;1
843;-542;1
843;-543;1
843;-568;1
843;-511;1
843;-518;1
843;-507;1
843;-535;1
843;-528;1
843;-541;1
843;-513;1
843;-497;1
843;-482;1
843;-499;1
843;-509;1
843;-525;1
843;-533;1
895;-503;1
895;-508;1
895;-522;1
895;-516;1
895;-560;1
895;-569;1
895;-566;1
895;-525;1
895;-539;1
895;-538;1
895;-564;1
895;-554;1
895;-562;1
895;-548;1
895;-531;1
895;-495;1
895;-545;1
895;-548;1
895;-535;1
895;-531;1
895;-531;1
895;-500;1
895;-521;1
895;-520;1
895;-548;1
895;-565;1
895;-533;1
895;-496;1
895;-531;1
895;-527;1
895;-546;1
895;-552;1
895;-559;1
895;-528;1
895;-521;1
895;-504;1
895;-555;1
895;-552;1
895;-545;1
895;-515;1
895;-519;1
895;-501;1
895;-517;1
895;-542;1
895;-575;1
895;-535;1
895;-517;1
895;-507;1
895;-540;1
895;-536;1
895;-563;1
895;-545;1
895;-541;1
895;-527;1
951;-501;1
951;-532;1
951;-574;1
951;-542;1
951;-548;1
951;-528;1
951;-529;1
951;-521;1
951;-543;1
951;-545;1
951;-558;1
951;-527;1
951;-486;1
951;-503;1
951;-530;1
951;-528;1
951;-531;1
951;-540;1
951;-501;1
951;-489;1
951;-496;1
951;-513;1
951;-537;1
951;-527;1
951;-498;1
951;-499;1
951;-510;1
951;-499;1
951;-534;1
951;-537;1
951;-528;1
951;-504;1
951;-515;1
951;-508;1
951;-528;1
951;-535;1
951;-525;1
951;-511;1
951;-504;1
951;-473;1
951;-495;1
951;-521;1
951;-511;1
951;-495;1
951;-496;1
951;-470;1
951;-484;1
951;-512;1
1001;-515;1
1001;-538;1
1001;-520;1
1001;-484;1
1001;-514;1
1001;-501;1
1001;-520;1
1001;-523;1
1001;-537;1
1001;-499;1
1001;-497;1
1001;-475;1
1001;-519;1
1001;-535;1
1001;-521;1
1001;-492;1
1001;-509;1
1001;-485;1
1001;-517;1
1001;-512;1
1001;-547;1
1001;-512;1
1001;-492;1
1001;-489;1
1001;-512;1
1001;-496;1
1001;-521;1
1001;-498;1
1001;-500;1
1001;-493;1
1001;-472;1
1001;-490;1
1001;-531;1
1001;-510;1
1001;-503;1
1001;-505;1
1001;-481;1
1001;-485;1
1001;-511;1
1001;-514;1
1001;-542;1
1001;-487;1
1001;-485;1
1001;-474;1
1001;-502;1
1001;-488;1
1001;-496;1
1001;-501;1
1001;-467;1
1001;-456;1
1001;-458;1
1001;-486;1
1001;-521;1
1001;-492;1
1056;-499;1
1056;-479;1
1056;-501;1
1056;-484;1
1056;-519;1
1056;-528;1
1056;-543;1
1056;-498;1
1056;-509;1
1056;-510;1
1056;-532;1
1056;-550;1
1056;-560;1
1056;-537;1
1056;-532;1
1056;-491;1
1056;-524;1
1056;-563;1
1056;-542;1
1056;-525;1
1056;-513;1
1056;-500;1
1056;-507;1
1056;-527;1
1056;-542;1
1056;-565;1
1056;-539;1
1056;-502;1
1056;-520;1
1056;-542;1
1056;-540;1
1056;-544;1
1056;-552;1
1056;-510;1
1056;-505;1
1056;-480;1
1056;-522;1
1056;-532;1
1056;-521;1
1056;-484;1
1056;-492;1
1056;-462;1
1056;-482;1
1056;-469;1
1056;-507;1
1056;-486;1
1056;-469;1
1056;-437;1
1056;-467;1
1056;-481;1
1056;-506;1
1056;-486;1
1056;-496;1
1056;-453;1
1107;-442;1
1107;-462;1
1107;-501;1
1107;-480;1
1107;-479;1
1107;-459;1
1107;-446;1
1107;-435;1
1107;-469;1
1107;-468;1
1107;-497;1
1107;-477;1
1107;-461;1
1107;-461;1
1107;-461;1
1107;-461;1
1107;-461;1
1107;-461;1
1107;-461;1
1107;-461;1
1107;-461;1
1107;-461;1
1107;-461;1
1107;-461;1
1107;-461;1
1107;-444;1
1107;-446;1
1107;-468;1
1107;-508;1
1107;-476;1
1107;-474;1
1107;-466;1
1107;-478;1
1107;-468;1
1107;-503;1
1107;-496;1
1107;-504;1
1107;-474;1
1107;-479;1
1107;-470;1
1107;-498;1
1107;-484;1
1107;-489;1
1107;-460;1
1107;-461;1
1107;-420;1
1107;-454;1
1107;-498;1
1107;-493;1
1107;-497;1
1107;-471;1
1107;-473;1
1107;-487;1
1107;-492;1
1162;-514;1
1162;-539;1
1162;-509;1
1162;-477;1
1162;-531;1
1162;-560;1
1162;-610;1
1162;-654;1
1162;-723;1
1162;-737;1
1162;-770;1
1162;-807;1
1162;-846;1
1162;-863;1
1162;-846;1
1162;-829;1
1162;-831;1
1162;-775;1
1162;-645;1
1162;-559;1
1162;-585;1
1162;-525;1
1162;-479;1
1162;-384;1
1162;-318;1
1162;-376;1
1162;-308;1
1162;-270;1
1162;-292;1
1162;-241;1
1162;-301;1
1162;-351;1
1162;-419;1
1162;-412;1
1162;-426;1
1162;-443;1
1162;-444;1
1162;-487;1
1162;-498;1
1162;-551;1
1162;-561;1
1162;-612;1
1162;-537;1
1162;-553;1
1162;-570;1
1162;-482;1
1162;-563;1
1162;-543;1
1162;-539;1
1162;-502;1
1162;-494;1
1162;-511;1
1162;-528;1
1162;-523;1
1235;-491;1
1235;-486;1
1235;-499;1
1235;-559;1
1235;-541;1
1235;-539;1
1235;-556;1
1235;-428;1
1235;-508;1
1235;-501;1
1235;-517;1
1235;-533;1
1235;-505;1
1235;-504;1
1235;-485;1
1235;-443;1
1235;-467;1
1235;-471;1
1235;-484;1
1235;-534;1
1235;-480;1
1235;-435;1
1235;-445;1
1235;-407;1
1235;-490;1
1235;-530;1
1235;-525;1
1235;-493;1
1235;-504;1
1235;-522;1
1235;-529;1
1235;-533;1
1235;-552;1
1235;-518;1
1235;-512;1
1235;-555;1
1235;-545;1
1235;-530;1
1235;-520;1
1235;-415;1
1235;-496;1
1235;-475;1
1235;-477;1
1235;-505;1
1235;-546;1
1235;-536;1
1235;-507;1
1235;-518;1
1235;-516;1
1235;-537;1
1235;-557;1
1235;-607;1
1235;-559;1
1235;-542;1
1235;-491;1
1235;-438;1
1235;-550;1
1235;-541;1
1235;-642;1
1235;-584;1
1235;-574;1
1235;-544;1
1235;-560;1
1235;-557;1
1235;-591;1
1235;-543;1
1235;-527;1
1235;-496;1
1235;-534;1
1235;-523;1
1235;-538;1
1235;-521;1
1287;-507;1
1287;-484;1
1287;-469;1
1287;-484;1
1287;-512;1
1287;-492;1
1287;-488;1
1287;-471;1
1287;-474;1
1287;-458;1
1287;-491;1
1287;-497;1
1287;-518;1
1287;-464;1
1287;-465;1
1287;-458;1
1287;-479;1
1287;-502;1
1287;-493;1
1287;-493;1
1287;-480;1
1287;-432;1
1287;-446;1
1287;-494;1
1287;-476;1
1287;-474;1
1287;-474;1
1287;-441;1
1287;-458;1
1287;-448;1
1287;-489;1
1287;-497;1
1287;-488;1
1287;-445;1
1287;-468;1
1287;-466;1
1287;-487;1
1287;-500;1
1287;-502;1
1287;-483;1
1287;-468;1
1287;-447;1
1287;-477;1
1287;-485;1
1287;-499;1
1287;-466;1
1287;-473;1
1287;-458;1
1342;-465;1
1342;-469;1
1342;-511;1
1342;-504;1
1342;-476;1
1342;-472;1
1342;-470;1
1342;-489;1
1342;-516;1
1342;-494;1
1342;-507;1
1342;-470;1
1342;-467;1
1342;-454;1
1342;-510;1
1342;-488;1
1342;-481;1
1342;-481;1
1342;-448;1
1342;-461;1
1342;-480;1
1342;-477;1
1342;-520;1
1342;-504;1
1342;-468;1
1342;-478;1
1342;-500;1
1342;-489;1
1342;-522;1
1342;-501;1
1342;-509;1
1342;-467;1
1342;-471;1
1342;-484;1
1342;-508;1
1342;-502;1
1342;-481;1
1342;-469;1
1342;-483;1
1342;-466;1
1342;-492;1
1342;-503;1
1342;-515;1
1342;-483;1
1342;-482;1
1342;-475;1
1342;-508;1
1342;-499;1
1342;-506;1
1342;-499;1
1342;-492;1
1342;-445;1
1342;-460;1
1342;-513;1
1396;-502;1
1396;-496;1
1396;-498;1
1396;-464;1
1396;-477;1
1396;-491;1
1396;-499;1
1396;-531;1
1396;-530;1
1396;-480;1
1396;-501;1
1396;-498;1
1396;-523;1
1396;-534;1
1396;-541;1
1396;-509;1
1396;-498;1
1396;-486;1
1396;-523;1
1396;-526;1
1396;-542;1
1396;-519;1
1396;-518;1
1396;-521;1
1396;-527;1
1396;-539;1
1396;-574;1
1396;-570;1
1396;-560;1
1396;-532;1
1396;-555;1
1396;-559;1
1396;-584;1
1396;-561;1
1396;-570;1
1396;-542;1
1396;-535;1
1396;-511;1
1396;-556;1
1396;-549;1
1396;-549;1
1396;-514;1
1396;-511;1
1396;-510;1
1396;-522;1
1396;-521;1
1396;-559;1
1396;-522;1
1396;-499;1
1396;-480;1
1396;-519;1
1396;-508;1
1396;-528;1
1396;-511;1
1447;-502;1
1447;-481;1
1447;-470;1
1447;-480;1
1447;-508;1
1447;-509;1
1447;-501;1
1447;-473;1
1447;-489;1
1447;-473;1
1447;-494;1
1447;-517;1
1447;-528;1
1447;-494;1
1447;-491;1
1447;-478;1
1447;-511;1
1447;-501;1
1447;-504;1
1447;-508;1
1447;-499;1
1447;-449;1
1447;-457;1
1447;-498;1
1447;-498;1
1447;-488;1
1447;-480;1
1447;-454;1
1447;-476;1
1447;-456;1
1447;-491;1
1447;-499;1
1447;-499;1
1447;-459;1
1447;-470;1
1447;-472;1
1447;-497;1
1447;-496;1
1447;-504;1
1447;-475;1
1447;-467;1
1447;-419;1
1447;-457;1
1447;-455;1
1447;-478;1
1447;-439;1
1447;-440;1
1447;-444;1
1447;-437;1
1447;-471;1
1447;-477;1
1447;-510;1
1447;-488;1
1447;-460;1
1502;-472;1
1502;-489;1
1502;-515;1
1502;-509;1
1502;-513;1
1502;-510;1
1502;-469;1
1502;-463;1
1502;-512;1
1502;-508;1
1502;-511;1
1502;-478;1
1502;-464;1
1502;-461;1
1502;-478;1
1502;-470;1
1502;-496;1
1502;-495;1
1502;-442;1
1502;-441;1
1502;-469;1
1502;-459;1
1502;-488;1
1502;-471;1
1502;-471;1
1502;-459;1
1502;-455;1
1502;-454;1
1502;-492;1
1502;-502;1
1502;-468;1
1502;-468;1
1502;-475;1
1502;-453;1
1502;-466;1
1502;-496;1
1502;-525;1
1502;-459;1
1502;-460;1
1502;-441;1
1502;-469;1
1502;-475;1
1502;-482;1
1502;-468;1
1502;-464;1
1502;-427;1
1502;-422;1
1502;-468;1
1579;-464;1
1579;-458;1
1579;-459;1
1579;-434;1
1579;-455;1
1579;-442;1
1579;-475;1
1579;-481;1
1579;-490;1
1579;-449;1
1579;-462;1
1579;-459;1
1579;-481;1
1579;-503;1
1579;-511;1
1579;-491;1
1579;-494;1
1579;-448;1
1579;-491;1
1579;-497;1
1579;-524;1
1579;-489;1
1579;-491;1
1579;-486;1
1579;-462;1
1579;-487;1
1579;-519;1
1579;-512;1
1579;-491;1
1579;-450;1
1579;-465;1
1579;-485;1
1579;-511;1
1579;-499;1
1579;-496;1
1579;-479;1
1579;-460;1
1579;-439;1
1579;-498;1
1579;-496;1
1579;-488;1
1579;-485;1
1579;-462;1
1579;-457;1
1579;-473;1
1579;-472;1
1579;-509;1
1579;-499;1
1579;-466;1
1579;-447;1
1579;-477;1
1579;-471;1
1579;-492;1
1579;-500;1
1579;-473;1
1579;-470;1
1579;-451;1
1579;-450;1
1579;-502;1
1579;-483;1
1579;-485;1
1579;-458;1
1579;-469;1
1579;-453;1
1579;-474;1
1579;-468;1
1579;-504;1
1579;-443;1
1579;-428;1
1579;-418;1
1579;-435;1
1579;-450;1
1579;-437;1
1579;-432;1
1579;-415;1
1579;-408;1
1579;-382;1
1579;-428;1
1634;-440;1
1634;-425;1
1634;-427;1
1634;-394;1
1634;-413;1
1634;-401;1
1634;-426;1
1634;-436;1
1634;-450;1
1634;-392;1
1634;-397;1
1634;-404;1
1634;-427;1
1634;-438;1
1634;-456;1
1634;-424;1
1634;-423;1
1634;-388;1
1634;-416;1
1634;-452;1
1634;-472;1
1634;-444;1
1634;-447;1
1634;-421;1
1634;-441;1
1634;-429;1
1634;-477;1
1634;-468;1
1634;-457;1
1634;-413;1
1634;-425;1
1634;-440;1
1634;-463;1
1634;-453;1
1634;-460;1
1634;-463;1
1634;-423;1
1634;-411;1
1634;-430;1
1634;-465;1
1634;-448;1
1634;-438;1
1634;-423;1
1634;-418;1
1634;-428;1
1634;-423;1
1634;-469;1
1634;-453;1
1634;-427;1
1634;-400;1
1634;-432;1
1634;-425;1
1634;-458;1
1634;-451;1
1684;-460;1
1684;-428;1
1684;-425;1
1684;-415;1
1684;-472;1
1684;-451;1
1684;-445;1
1684;-432;1
1684;-434;1
1684;-415;1
1684;-432;1
1684;-460;1
1684;-462;1
1684;-446;1
1684;-435;1
1684;-408;1
1684;-456;1
1684;-435;1
1684;-448;1
1684;-449;1
1684;-451;1
1684;-409;1
1684;-414;1
1684;-465;1
1684;-458;1
1684;-470;1
1684;-449;1
1684;-439;1
1684;-445;1
1684;-446;1
1684;-469;1
1684;-470;1
1684;-497;1
1684;-436;1
1684;-434;1
1684;-455;1
1684;-453;1
1684;-467;1
1684;-477;1
1684;-454;1
1684;-459;1
1684;-421;1
1684;-444;1
1684;-465;1
1684;-489;1
1684;-451;1
1684;-455;1
1684;-458;1
1740;-442;1
1740;-467;1
1740;-503;1
1740;-507;1
1740;-493;1
1740;-478;1
1740;-461;1
1740;-490;1
1740;-508;1
1740;-500;1
1740;-516;1
1740;-482;1
1740;-478;1
1740;-438;1
1740;-488;1
1740;-482;1
1740;-484;1
1740;-483;1
1740;-464;1
1740;-449;1
1740;-469;1
1740;-461;1
1740;-490;1
1740;-509;1
1740;-457;1
1740;-447;1
1740;-476;1
1740;-471;1
1740;-487;1
1740;-496;1
1740;-470;1
1740;-462;1
1740;-448;1
1740;-432;1
1740;-489;1
1740;-482;1
1740;-475;1
1740;-435;1
1740;-444;1
1740;-434;1
1740;-448;1
1740;-445;1
1740;-484;1
1740;-444;1
1740;-438;1
1740;-424;1
1740;-452;1
1740;-448;1
1740;-479;1
1740;-455;1
1740;-467;1
1740;-430;1
1740;-438;1
1740;-454;1
1792;-480;1
1792;-473;1
1792;-472;1
1792;-441;1
1792;-456;1
1792;-444;1
1792;-460;1
1792;-467;1
1792;-500;1
1792;-436;1
1792;-430;1
1792;-452;1
1792;-448;1
1792;-466;1
1792;-490;1
1792;-459;1
1792;-459;1
1792;-441;1
1792;-427;1
1792;-470;1
1792;-501;1
1792;-461;1
1792;-457;1
1792;-461;1
1792;-443;1
1792;-457;1
1792;-481;1
1792;-480;1
1792;-481;1
1792;-432;1
1792;-439;1
1792;-458;1
1792;-478;1
1792;-465;1
1792;-472;1
1792;-444;1
1792;-426;1
1792;-401;1
1792;-445;1
1792;-448;1
1792;-457;1
1792;-444;1
1792;-449;1
1792;-433;1
1792;-457;1
1792;-452;1
1792;-496;1
1792;-496;1
1792;-457;1
1792;-449;1
1792;-470;1
1792;-487;1
1792;-530;1
1792;-552;1
1843;-585;1
1843;-604;1
1843;-646;1
1843;-667;1
1843;-755;1
1843;-805;1
1843;-810;1
1843;-780;1
1843;-770;1
1843;-765;1
1843;-799;1
1843;-765;1
1843;-753;1
1843;-568;1
1843;-458;1
1843;-420;1
1843;-413;1
1843;-331;1
1843;-276;1
1843;-230;1
1843;-227;1
1843;-194;1
1843;-216;1
1843;-260;1
1843;-337;1
1843;-456;1
1843;-392;1
1843;-354;1
1843;-357;1
1843;-304;1
1843;-419;1
1843;-442;1
1843;-488;1
1843;-450;1
1843;-465;1
1843;-472;1
1843;-490;1
1843;-503;1
1843;-534;1
1843;-525;1
1843;-512;1
1843;-559;1
1843;-482;1
1843;-512;1
1843;-534;1
1843;-410;1
1843;-480;1
1843;-485;1
1922;-464;1
1922;-472;1
1922;-508;1
1922;-507;1
1922;-519;1
1922;-478;1
1922;-494;1
1922;-493;1
1922;-529;1
1922;-594;1
1922;-547;1
1922;-531;1
1922;-475;1
1922;-386;1
1922;-495;1
1922;-490;1
1922;-496;1
1922;-448;1
1922;-443;1
1922;-433;1
1922;-442;1
1922;-429;1
1922;-469;1
1922;-466;1
1922;-444;1
1922;-485;1
1922;-469;1
1922;-450;1
1922;-482;1
1922;-407;1
1922;-486;1
1922;-472;1
1922;-459;1
1922;-451;1
1922;-505;1
1922;-517;1
1922;-511;1
1922;-495;1
1922;-499;1
1922;-489;1
1922;-520;1
1922;-599;1
1922;-571;1
1922;-565;1
1922;-538;1
1922;-450;1
1922;-567;1
1922;-567;1
1922;-595;1
1922;-584;1
1922;-598;1
1922;-559;1
1922;-547;1
1922;-579;1
1922;-585;1
1922;-584;1
1922;-569;1
1922;-719;1
1922;-589;1
1922;-588;1
1922;-616;1
1922;-634;1
1922;-660;1
1922;-593;1
1922;-577;1
1922;-585;1
1922;-567;1
1922;-587;1
1922;-564;1
1922;-568;1
1922;-556;1
1922;-514;1
1922;-486;1
1922;-540;1
1922;-541;1
1922;-515;1
1922;-502;1
1922;-507;1
1972;-490;1
1972;-495;1
1972;-533;1
1972;-542;1
1972;-557;1
1972;-511;1
1972;-531;1
1972;-541;1
1972;-574;1
1972;-566;1
1972;-588;1
1972;-575;1
1972;-564;1
1972;-543;1
1972;-570;1
1972;-568;1
1972;-594;1
1972;-557;1
1972;-551;1
1972;-543;1
1972;-558;1
1972;-546;1
1972;-589;1
1972;-589;1
1972;-568;1
1972;-531;1
1972;-563;1
1972;-560;1
1972;-581;1
1972;-596;1
1972;-571;1
1972;-574;1
1972;-538;1
1972;-545;1
1972;-576;1
1972;-590;1
1972;-573;1
1972;-554;1
1972;-554;1
1972;-544;1
1972;-540;1
1972;-566;1
1972;-580;1
1972;-581;1
1972;-564;1
1972;-532;1
1972;-578;1
1972;-571;1
2024;-599;1
2024;-585;1
2024;-595;1
2024;-566;1
2024;-560;1
2024;-555;1
2024;-587;1
2024;-595;1
2024;-584;1
2024;-551;1
2024;-561;1
2024;-543;1
2024;-574;1
2024;-576;1
2024;-615;1
2024;-562;1
2024;-553;1
2024;-575;1
2024;-571;1
2024;-591;1
2024;-618;1
2024;-598;1
2024;-594;1
2024;-565;1
2024;-559;1
2024;-581;1
2024;-611;1
2024;-582;1
2024;-577;1
2024;-571;1
2024;-557;1
2024;-553;1
2024;-588;1
2024;-590;1
2024;-612;1
2024;-564;1
2024;-558;1
2024;-566;1
2024;-593;1
2024;-586;1
2024;-611;1
2024;-589;1
2024;-581;1
2024;-539;1
2024;-574;1
2024;-575;1
2024;-587;1
2024;-587;1
2024;-548;1
2024;-542;1
2024;-552;1
2024;-542;1
2024;-584;1
2024;-588;1
2078;-569;1
2078;-539;1
2078;-559;1
2078;-548;1
2078;-570;1
2078;-590;1
2078;-573;1
2078;-554;1
2078;-553;1
2078;-510;1
2078;-559;1
2078;-574;1
2078;-563;1
2078;-532;1
2078;-553;1
2078;-537;1
2078;-543;1
2078;-556;1
2078;-567;1
2078;-573;1
2078;-552;1
2078;-536;1
2078;-544;1
2078;-562;1
2078;-563;1
2078;-573;1
2078;-583;1
2078;-538;1
2078;-510;1
2078;-527;1
2078;-538;1
2078;-550;1
2078;-533;1
2078;-498;1
2078;-494;1
2078;-498;1
2078;-481;1
2078;-519;1
2078;-549;1
2078;-495;1
2078;-485;1
2078;-498;1
2128;-492;1
2128;-508;1
2128;-526;1
2128;-503;1
2128;-507;1
2128;-468;1
2128;-471;1
2128;-489;1
2128;-522;1
2128;-487;1
2128;-475;1
2128;-476;1
2128;-453;1
2128;-471;1
2128;-473;1
2128;-504;1
2128;-510;1
2128;-479;1
2128;-464;1
2128;-475;1
2128;-501;1
2128;-493;1
2128;-514;1
2128;-498;1
2128;-491;1
2128;-452;1
2128;-471;1
2128;-485;1
2128;-503;1
2128;-496;1
2128;-460;1
2128;-459;1
2128;-470;1
2128;-457;1
2128;-502;1
2128;-503;1
2128;-480;1
2128;-455;1
2128;-471;1
2128;-464;1
2128;-494;1
2128;-480;1
2128;-499;1
2128;-467;1
2128;-460;1
2128;-425;1
2128;-461;1
2128;-482;1
2128;-454;1
2128;-450;1
2128;-440;1
2128;-420;1
2128;-435;1
2128;-457;1
2128;-483;1
2128;-479;1
2128;-463;1
2128;-432;1
2128;-467;1
2128;-482;1
2181;-506;1
2181;-506;1
2181;-507;1
2181;-476;1
2181;-463;1
2181;-483;1
2181;-497;1
2181;-508;1
2181;-499;1
2181;-464;1
2181;-468;1
2181;-448;1
2181;-454;1
2181;-472;1
2181;-501;1
2181;-455;1
2181;-445;1
2181;-424;1
2181;-463;1
2181;-452;1
2181;-479;1
2181;-455;1
2181;-450;1
2181;-443;1
2181;-409;1
2181;-456;1
2181;-491;1
2181;-466;1
2181;-463;1
2181;-457;1
2181;-424;1
2181;-441;1
2181;-470;1
2181;-464;1
2181;-481;1
2181;-457;1
2181;-412;1
2181;-433;1
2181;-425;1
2181;-434;1
2181;-438;1
2181;-444;1
2181;-425;1
2181;-390;1
2181;-410;1
2181;-426;1
2181;-454;1
2181;-416;1
2265;-402;1
2265;-399;1
2265;-414;1
2265;-398;1
2265;-444;1
2265;-454;1
2265;-458;1
2265;-420;1
2265;-430;1
2265;-433;1
2265;-474;1
2265;-473;1
2265;-499;1
2265;-480;1
2265;-483;1
2265;-441;1
2265;-502;1
2265;-504;1
2265;-507;1
2265;-493;1
2265;-496;1
2265;-468;1
2265;-488;1
2265;-484;1
2265;-526;1
2265;-522;1
2265;-501;1
2265;-460;1
2265;-483;1
2265;-501;1
2265;-492;1
2265;-513;1
2265;-489;1
2265;-478;1
2265;-453;1
2265;-457;1
2265;-480;1
2265;-487;1
2265;-484;1
2265;-449;1
2265;-454;1
2265;-441;1
2265;-447;1
2265;-466;1
2265;-500;1
2265;-463;1
2265;-457;1
2265;-434;1
2265;-475;1
2265;-470;1
2265;-496;1
2265;-480;1
2265;-480;1
2265;-472;1
2287;-424;1
2287;-465;1
2287;-498;1
2287;-475;1
2287;-479;1
2287;-450;1
2287;-462;1
2287;-444;1
2287;-481;1
2287;-485;1
2287;-520;1
2287;-462;1
2287;-455;1
2287;-474;1
2287;-496;1
2287;-486;1
2287;-503;1
2287;-487;1
2287;-477;1
2287;-451;1
2287;-458;1
2287;-479;1
2287;-503;1
2287;-472;1
2287;-456;1
2287;-446;1
2287;-456;1
2287;-449;1
2287;-487;1
2287;-489;1
2287;-471;1
2287;-447;1
2287;-454;1
2287;-441;1
2287;-458;1
2287;-491;1
2287;-482;1
2287;-480;1
2287;-465;1
2287;-419;1
2287;-458;1
2287;-472;1
2287;-486;1
2287;-443;1
2287;-451;1
2287;-418;1
2287;-440;1
2287;-427;1
2339;-461;1
2339;-479;1
2339;-450;1
2339;-417;1
2339;-442;1
2339;-441;1
2339;-463;1
2339;-469;1
2339;-471;1
2339;-438;1
2339;-427;1
2339;-432;1
2339;-449;1
2339;-482;1
2339;-453;1
2339;-431;1
2339;-426;1
2339;-431;1
2339;-428;1
2339;-444;1
2339;-484;1
2339;-452;1
2339;-446;1
2339;-431;1
2339;-448;1
2339;-465;1
2339;-485;1
2339;-468;1
2339;-476;1
2339;-476;1
2339;-447;1
2339;-486;1
2339;-507;1
2339;-497;1
2339;-501;1
2339;-506;1
2339;-481;1
2339;-491;1
2339;-507;1
2339;-500;1
2339;-528;1
2339;-501;1
2339;-461;1
2339;-474;1
2339;-495;1
2339;-483;1
2339;-498;1
2339;-467;1
2395;-453;1
2395;-432;1
2395;-440;1
2395;-450;1
2395;-476;1
2395;-462;1
2395;-463;1
2395;-445;1
2395;-459;1
2395;-453;1
2395;-470;1
2395;-495;1
2395;-479;1
2395;-435;1
2395;-447;1
2395;-450;1
2395;-464;1
2395;-487;1
2395;-482;1
2395;-487;1
2395;-478;1
2395;-437;1
2395;-470;1
2395;-507;1
2395;-501;1
2395;-493;1
2395;-514;1
2395;-495;1
2395;-516;1
2395;-502;1
2395;-537;1
2395;-548;1
2395;-523;1
2395;-481;1
2395;-491;1
2395;-521;1
2395;-510;1
2395;-522;1
2395;-523;1
2395;-491;1
2395;-489;1
2395;-464;1
2395;-503;1
2395;-517;1
2395;-529;1
2395;-496;1
2395;-497;1
2395;-504;1
2395;-507;1
2395;-541;1
2395;-566;1
2395;-576;1
2395;-555;1
2395;-554;1
2445;-558;1
2445;-566;1
2445;-587;1
2445;-551;1
2445;-552;1
2445;-535;1
2445;-493;1
2445;-506;1
2445;-536;1
2445;-505;1
2445;-506;1
2445;-477;1
2445;-480;1
2445;-480;1
2445;-491;1
2445;-488;1
2445;-523;1
2445;-484;1
2445;-490;1
2445;-481;1
2445;-519;1
2445;-514;1
2445;-534;1
2445;-518;1
2445;-521;1
2445;-482;1
2445;-494;1
2445;-512;1
2445;-540;1
2445;-508;1
2445;-499;1
2445;-492;1
2445;-496;1
2445;-472;1
2445;-507;1
2445;-531;1
2445;-511;1
2445;-499;1
2445;-502;1
2445;-544;1
2445;-602;1
2445;-644;1
2445;-683;1
2445;-689;1
2445;-713;1
2445;-678;1
2445;-689;1
2445;-688;1
2445;-715;1
2445;-707;1
2445;-700;1
2445;-642;1
2445;-617;1
2445;-558;1
2497;-527;1
2497;-490;1
2497;-383;1
2497;-232;1
2497;-191;1
2497;-160;1
2497;-179;1
2497;-200;1
2497;-223;1
2497;-210;1
2497;-198;1
2497;-150;1
2497;-180;1
2497;-69;1
2497;12;1
2497;9;1
2497;0;1
2497;-26;1
2497;-28;1
2497;-77;1
2497;-149;1
2497;-169;1
2497;-208;1
2497;-254;1
2497;-304;1
2497;-345;1
2497;-382;1
2497;-446;1
2497;-456;1
2497;-563;1
2497;-465;1
2497;-468;1
2497;-510;1
2497;-401;1
2497;-466;1
2497;-402;1
2497;-237;1
2497;-237;1
2497;-237;1
2497;-237;1
2497;-237;1
2497;-237;1
2497;-237;1
2497;-237;1
2497;-237;1
2497;-237;1
2497;-237;1
2497;-237;1
2497;-237;1
2497;-229;1
2497;-253;1
2497;-316;1
2497;-288;1
2497;-265;1
2553;-273;1
2553;-156;1
2553;-213;1
2553;-225;1
2553;-256;1
2553;-240;1
2553;-270;1
2553;-283;1
2553;-332;1
2553;-343;1
2553;-393;1
2553;-392;1
2553;-413;1
2553;-426;1
2553;-367;1
2553;-323;1
2553;-333;1
2553;-265;1
2553;-324;1
2553;-326;1
2553;-314;1
2553;-318;1
2553;-349;1
2553;-395;1
2553;-397;1
2553;-380;1
2553;-378;1
2553;-341;1
2553;-360;1
2553;-417;1
2553;-386;1
2553;-404;1
2553;-384;1
2553;-268;1
2553;-377;1
2553;-401;1
2553;-432;1
2553;-458;1
2553;-496;1
2553;-496;1
2553;-535;1
2553;-534;1
2553;-623;1
2553;-638;1
2553;-664;1
2553;-697;1
2553;-634;1
2553;-602;1
2553;-551;1
2553;-482;1
2553;-568;1
2553;-520;1
2553;-458;1
2553;-489;1
2553;-461;1
2553;-395;1
2553;-383;1
2553;-326;1
2553;-310;1
2553;-256;1
2608;-225;1
2608;-199;1
2608;-235;1
2608;-225;1
2608;-217;1
2608;-236;1
2608;-263;1
2608;-315;1
2608;-382;1
2608;-443;1
2608;-519;1
2608;-538;1
2608;-506;1
2608;-517;1
2608;-545;1
2608;-525;1
2608;-542;1
2608;-526;1
2608;-515;1
2608;-481;1
2608;-447;1
2608;-438;1
2608;-465;1
2608;-415;1
2608;-382;1
2608;-354;1
2608;-341;1
2608;-305;1
2608;-310;1
2608;-328;1
2608;-309;1
2608;-282;1
2608;-293;1
2608;-317;1
2608;-385;1
2608;-408;1
2608;-460;1
2608;-472;1
2608;-497;1
2608;-469;1
2608;-505;1
2608;-535;1
2608;-514;1
2608;-514;1
2608;-514;1
2608;-514;1
2608;-514;1
2608;-514;1
2608;-514;1
2608;-514;1
2608;-514;1
2608;-514;1
2608;-514;1
2608;-514;1
2608;-514;1
2608;-539;1
2608;-531;1
2608;-476;1
2608;-477;1
2608;-476;1
2659;-497;1
2659;-521;1
2659;-547;1
2659;-528;1
2659;-508;1
2659;-492;1
2659;-500;1
2659;-528;1
2659;-521;1
2659;-484;1
2659;-475;1
2659;-490;1
2659;-490;1
2659;-522;1
2659;-560;1
2659;-566;1
2659;-560;1
2659;-538;1
2659;-574;1
2659;-575;1
2659;-613;1
2659;-598;1
2659;-613;1
2659;-609;1
2659;-607;1
2659;-597;1
2659;-659;1
2659;-655;1
2659;-663;1
2659;-641;1
2659;-630;1
2659;-630;1
2659;-622;1
2659;-627;1
2659;-628;1
2659;-602;1
2659;-550;1
2659;-539;1
2659;-562;1
2659;-556;1
2659;-582;1
2659;-560;1
2711;-552;1
2711;-544;1
2711;-530;1
2711;-545;1
2711;-591;1
2711;-571;1
2711;-578;1
2711;-557;1
2711;-573;1
2711;-557;1
2711;-586;1
2711;-575;1
2711;-588;1
2711;-514;1
2711;-496;1
2711;-466;1
2711;-478;1
2711;-492;1
2711;-476;1
2711;-487;1
2711;-496;1
2711;-472;1
2711;-501;1
2711;-538;1
2711;-580;1
2711;-590;1
2711;-591;1
2711;-573;1
2711;-605;1
2711;-615;1
2711;-638;1
2711;-667;1
2711;-657;1
2711;-648;1
2711;-645;1
2711;-675;1
2711;-692;1
2711;-709;1
2711;-727;1
2711;-702;1
2711;-699;1
2711;-659;1
2711;-706;1
2711;-717;1
2711;-735;1
2711;-697;1
2711;-716;1
2711;-695;1
2711;-727;1
2711;-718;1
2711;-752;1
2711;-746;1
2711;-723;1
2711;-688;1
2766;-703;1
2766;-686;1
2766;-710;1
2766;-681;1
2766;-678;1
2766;-661;1
2766;-614;1
2766;-601;1
2766;-651;1
2766;-640;1
2766;-635;1
2766;-644;1
2766;-643;1
2766;-627;1
2766;-657;1
2766;-667;1
2766;-701;1
2766;-695;1
2766;-668;1
2766;-660;1
2766;-696;1
2766;-697;1
2766;-701;1
2766;-709;1
2766;-683;1
2766;-663;1
2766;-657;1
2766;-646;1
2766;-676;1
2766;-685;1
2766;-643;1
2766;-634;1
2766;-638;1
2766;-613;1
2766;-643;1
2766;-642;1
2766;-666;1
2766;-624;1
2766;-612;1
2766;-600;1
2766;-621;1
2766;-601;1
2766;-606;1
2766;-594;1
2766;-587;1
2766;-543;1
2766;-550;1
2766;-568;1
2766;-590;1
2766;-597;1
2766;-604;1
2766;-599;1
2766;-612;1
2766;-623;1
2819;-662;1
2819;-671;1
2819;-677;1
2819;-638;1
2819;-645;1
2819;-660;1
2819;-673;1
2819;-669;1
2819;-678;1
2819;-646;1
2819;-651;1
2819;-639;1
2819;-644;1
2819;-662;1
2819;-677;1
2819;-637;1
2819;-659;1
2819;-665;1
2819;-633;1
2819;-648;1
2819;-675;1
2819;-672;1
2819;-641;1
2819;-624;1
2819;-600;1
2819;-623;1
2819;-656;1
2819;-631;1
2819;-639;1
2819;-603;1
2819;-604;1
2819;-566;1
2819;-626;1
2819;-614;1
2819;-604;1
2819;-611;1
2819;-585;1
2819;-588;1
2819;-599;1
2819;-596;1
2819;-619;1
2819;-617;1
2819;-584;1
2819;-543;1
2819;-572;1
2819;-564;1
2819;-576;1
2819;-581;1
2819;-563;1
2819;-533;1
2819;-517;1
2819;-520;1
2819;-533;1
2819;-535;1
2870;-506;1
2870;-497;1
2870;-505;1
2870;-477;1
2870;-504;1
2870;-518;1
2870;-550;1
2870;-527;1
2870;-525;1
2870;-514;1
2870;-552;1
2870;-552;1
2870;-586;1
2870;-579;1
2870;-595;1
2870;-556;1
2870;-566;1
2870;-588;1
2870;-615;1
2870;-616;1
2870;-616;1
2870;-589;1
2870;-606;1
2870;-623;1
2870;-627;1
2870;-677;1
2870;-679;1
2870;-611;1
2870;-625;1
2870;-648;1
2870;-653;1
2870;-640;1
2870;-672;1
2870;-659;1
2870;-621;1
2870;-576;1
2870;-608;1
2870;-643;1
2870;-638;1
2870;-594;1
2870;-609;1
2870;-622;1
2870;-591;1
2870;-585;1
2870;-628;1
2870;-645;1
2870;-623;1
2870;-593;1
2950;-620;1
2950;-620;1
2950;-620;1
2950;-620;1
2950;-620;1
2950;-620;1
2950;-620;1
2950;-620;1
2950;-620;1
2950;-620;1
2950;-620;1
2950;-620;1
2950;-620;1
2950;-620;1
2950;-620;1
2950;-620;1
2950;-620;1
2950;-620;1
2950;-620;1
2950;-594;1
2950;-611;1
2950;-636;1
2950;-681;1
2950;-647;1
2950;-599;1
2950;-614;1
2950;-664;1
2950;-653;1
2950;-658;1
2950;-667;1
2950;-665;1
2950;-675;1
2950;-612;1
2950;-627;1
2950;-671;1
2950;-708;1
2950;-673;1
2950;-635;1
2950;-647;1
2950;-643;1
2950;-672;1
2950;-645;1
2950;-670;1
2950;-632;1
2950;-634;1
2950;-615;1
2950;-630;1
2950;-667;1
2950;-659;1
2950;-651;1
2950;-648;1
2950;-604;1
2950;-605;1
2950;-623;1
2971;-661;1
2971;-631;1
2971;-640;1
2971;-609;1
2971;-627;1
2971;-650;1
2971;-648;1
2971;-675;1
2971;-700;1
2971;-643;1
2971;-635;1
2971;-669;1
2971;-662;1
2971;-677;1
2971;-694;1
2971;-677;1
2971;-676;1
2971;-626;1
2971;-649;1
2971;-668;1
2971;-700;1
2971;-667;1
2971;-663;1
2971;-646;1
2971;-649;1
2971;-654;1
2971;-683;1
2971;-685;1
2971;-671;1
2971;-635;1
2971;-643;1
2971;-643;1
2971;-655;1
2971;-636;1
2971;-646;1
2971;-645;1
2971;-597;1
2971;-573;1
2971;-613;1
2971;-608;1
2971;-614;1
2971;-570;1
2971;-559;1
2971;-544;1
2971;-553;1
2971;-533;1
2971;-558;1
2971;-570;1
3022;-505;1
3022;-494;1
3022;-512;1
3022;-505;1
3022;-528;1
3022;-517;1
3022;-516;1
3022;-487;1
3022;-480;1
3022;-459;1
3022;-507;1
3022;-508;1
3022;-507;1
3022;-502;1
3022;-512;1
3022;-496;1
3022;-524;1
3022;-531;1
3022;-565;1
3022;-547;1
3022;-530;1
3022;-513;1
3022;-546;1
3022;-543;1
3022;-565;1
3022;-554;1
3022;-557;1
3022;-518;1
3022;-525;1
3022;-544;1
3022;-569;1
3022;-567;1
3022;-568;1
3022;-549;1
3022;-563;1
3022;-545;1
3022;-572;1
3022;-598;1
3022;-609;1
3022;-549;1
3022;-544;1
3022;-532;1
3022;-545;1
3022;-554;1
3022;-559;1
3022;-534;1
3022;-523;1
3022;-474;1
3022;-483;1
3022;-515;1
3022;-524;1
3022;-484;1
3022;-487;1
3022;-480;1
3074;-483;1
3074;-473;1
3074;-512;1
3074;-509;1
3074;-507;1
3074;-473;1
3074;-471;1
3074;-488;1
3074;-505;1
3074;-490;1
3074;-503;1
3074;-491;1
3074;-475;1
3074;-439;1
3074;-488;1
3074;-492;1
3074;-514;1
3074;-477;1
3074;-495;1
3074;-469;1
3074;-486;1
3074;-487;1
3074;-529;1
3074;-518;1
3074;-494;1
3074;-481;1
3074;-512;1
3074;-486;1
3074;-524;1
3074;-548;1
3074;-505;1
3074;-475;1
3074;-472;1
3074;-466;1
3074;-519;1
3074;-492;1
3074;-493;1
3074;-501;1
3074;-506;1
3074;-490;1
3074;-488;1
3074;-508;1
3074;-538;1
3074;-505;1
3074;-485;1
3074;-436;1
3074;-457;1
3074;-479;1
3124;-482;1
3124;-472;1
3124;-483;1
3124;-451;1
3124;-443;1
3124;-492;1
3124;-498;1
3124;-503;1
3124;-492;1
3124;-461;1
3124;-485;1
3124;-464;1
3124;-493;1
3124;-520;1
3124;-602;1
3124;-589;1
3124;-643;1
3124;-680;1
3124;-769;1
3124;-811;1
3124;-894;1
3124;-907;1
3124;-896;1
3124;-836;1
3124;-856;1
3124;-902;1
3124;-875;1
3124;-765;1
3124;-705;1
3124;-623;1
3124;-586;1
3124;-543;1
3124;-476;1
3124;-355;1
3124;-280;1
3124;-234;1
3124;-239;1
3124;-238;1
3124;-292;1
3124;-311;1
3124;-347;1
3124;-361;1
3124;-336;1
3124;-327;1
3124;-388;1
3124;-418;1
3124;-449;1
3124;-429;1
3178;-444;1
3178;-441;1
3178;-475;1
3178;-483;1
3178;-521;1
3178;-503;1
3178;-494;1
3178;-484;1
3178;-498;1
3178;-476;1
3178;-498;1
3178;-483;1
3178;-482;1
3178;-458;1
3178;-435;1
3178;-403;1
3178;-457;1
3178;-488;1
3178;-447;1
3178;-445;1
3178;-454;1
3178;-448;1
3178;-462;1
3178;-485;1
3178;-469;1
3178;-465;1
3178;-448;1
3178;-432;1
3178;-449;1
3178;-428;1
3178;-452;1
3178;-434;1
3178;-426;1
3178;-387;1
3178;-382;1
3178;-400;1
3178;-443;1
3178;-444;1
3178;-430;1
3178;-401;1
3178;-426;1
3178;-437;1
3178;-471;1
3178;-493;1
3178;-515;1
3178;-469;1
3178;-477;1
3178;-499;1
3178;-481;1
3178;-484;1
3178;-513;1
3178;-495;1
3178;-502;1
3178;-449;1
3234;-450;1
3234;-483;1
3234;-525;1
3234;-488;1
3234;-478;1
3234;-484;1
3234;-488;1
3234;-517;1
3234;-548;1
3234;-547;1
3234;-561;1
3234;-520;1
3234;-531;1
3234;-551;1
3234;-548;1
3234;-543;1
3234;-563;1
3234;-566;1
3234;-515;1
3234;-476;1
3234;-499;1
3234;-540;1
3234;-546;1
3234;-520;1
3234;-483;1
3234;-482;1
3234;-504;1
3234;-485;1
3234;-497;1
3234;-522;1
3234;-474;1
3234;-464;1
3234;-481;1
3234;-474;1
3234;-480;1
3234;-495;1
3234;-478;1
3234;-461;1
3234;-449;1
3234;-412;1
3234;-479;1
3234;-492;1
3234;-482;1
3234;-465;1
3234;-467;1
3234;-463;1
3234;-493;1
3234;-485;1
3234;-506;1
3234;-512;1
3234;-499;1
3234;-478;1
3234;-506;1
3234;-479;1
3291;-498;1
3291;-513;1
3291;-522;1
3291;-465;1
3291;-443;1
3291;-469;1
3291;-499;1
3291;-500;1
3291;-461;1
3291;-457;1
3291;-464;1
3291;-485;1
3291;-485;1
3291;-491;1
3291;-525;1
3291;-478;1
3291;-483;1
3291;-470;1
3291;-491;1
3291;-473;1
3291;-508;1
3291;-502;1
3291;-513;1
3291;-463;1
3291;-459;1
3291;-510;1
3291;-558;1
3291;-544;1
3291;-540;1
3291;-507;1
3291;-538;1
3291;-569;1
3291;-591;1
3291;-574;1
3291;-594;1
3291;-554;1
3291;-570;1
3291;-546;1
3291;-563;1
3291;-556;1
3291;-575;1
3291;-568;1
3291;-509;1
3291;-514;1
3291;-518;1
3291;-556;1
3291;-557;1
3291;-519;1
3291;-518;1
3291;-518;1
3291;-524;1
3291;-511;1
3291;-534;1
3291;-586;1
3291;-548;1
3291;-521;1
3291;-528;1
3291;-524;1
3291;-559;1
3291;-549;1
3345;-550;1
3345;-542;1
3345;-531;1
3345;-494;1
3345;-549;1
3345;-537;1
3345;-537;1
3345;-514;1
3345;-529;1
3345;-504;1
3345;-519;1
3345;-509;1
3345;-559;1
3345;-535;1
3345;-514;1
3345;-480;1
3345;-511;1
3345;-505;1
3345;-529;1
3345;-503;1
3345;-507;1
3345;-457;1
3345;-462;1
3345;-480;1
3345;-516;1
3345;-493;1
3345;-493;1
3345;-472;1
3345;-466;1
3345;-478;1
3345;-483;1
3345;-493;1
3345;-531;1
3345;-493;1
3345;-468;1
3345;-475;1
3345;-483;1
3345;-496;1
3345;-507;1
3345;-480;1
3345;-496;1
3345;-470;1
3345;-458;1
3345;-491;1
3345;-527;1
3345;-496;1
3345;-504;1
3345;-470;1
3345;-486;1
3345;-484;1
3345;-514;1
3345;-509;1
3345;-524;1
3345;-479;1
3395;-491;1
3395;-472;1
3395;-483;1
3395;-473;1
3395;-492;1
3395;-498;1
3395;-461;1
3395;-446;1
3395;-468;1
3395;-486;1
3395;-501;1
3395;-480;1
3395;-439;1
3395;-444;1
3395;-459;1
3395;-457;1
3395;-490;1
3395;-501;1
3395;-475;1
3395;-450;1
3395;-449;1
3395;-469;1
3395;-453;1
3395;-474;1
3395;-466;1
3395;-456;1
3395;-441;1
3395;-389;1
3395;-447;1
3395;-496;1
3395;-473;1
3395;-470;1
3395;-474;1
3395;-444;1
3395;-481;1
3395;-488;1
3395;-520;1
3395;-530;1
3395;-498;1
3395;-469;1
3395;-502;1
3395;-502;1
3395;-516;1
3395;-507;1
3395;-501;1
3395;-476;1
3395;-502;1
3395;-491;1
3450;-522;1
3450;-521;1
3450;-518;1
3450;-502;1
3450;-503;1
3450;-504;1
3450;-485;1
3450;-523;1
3450;-537;1
3450;-531;1
3450;-499;1
3450;-470;1
3450;-482;1
3450;-501;1
3450;-544;1
3450;-506;1
3450;-495;1
3450;-485;1
3450;-479;1
3450;-524;1
3450;-550;1
3450;-504;1
3450;-501;1
3450;-511;1
3450;-499;1
3450;-491;1
3450;-506;1
3450;-509;1
3450;-561;1
3450;-505;1
3450;-484;1
3450;-468;1
3450;-502;1
3450;-496;1
3450;-506;1
3450;-468;1
3450;-468;1
3450;-450;1
3450;-475;1
3450;-467;1
3450;-490;1
3450;-461;1
3450;-473;1
3450;-465;1
3450;-471;1
3450;-474;1
3450;-506;1
3450;-539;1
3450;-538;1
3450;-488;1
3450;-500;1
3450;-508;1
3450;-545;1
3450;-544;1
3503;-541;1
3503;-508;1
3503;-501;1
3503;-470;1
3503;-508;1
3503;-546;1
3503;-529;1
3503;-517;1
3503;-527;1
3503;-505;1
3503;-512;1
3503;-531;1
3503;-535;1
3503;-556;1
3503;-545;1
3503;-509;1
3503;-530;1
3503;-561;1
3503;-544;1
3503;-548;1
3503;-561;1
3503;-521;1
3503;-514;1
3503;-481;1
3503;-533;1
3503;-552;1
3503;-554;1
3503;-531;1
3503;-551;1
3503;-536;1
3503;-554;1
3503;-572;1
3503;-616;1
3503;-585;1
3503;-578;1
3503;-568;1
3503;-613;1
3503;-607;1
3503;-639;1
3503;-611;1
3503;-615;1
3503;-613;1
3503;-579;1
3503;-595;1
3503;-626;1
3503;-601;1
3503;-598;1
3503;-576;1
3554;-577;1
3554;-562;1
3554;-579;1
3554;-589;1
3554;-636;1
3554;-580;1
3554;-569;1
3554;-557;1
3554;-575;1
3554;-560;1
3554;-568;1
3554;-538;1
3554;-521;1
3554;-497;1
3554;-491;1
3554;-503;1
3554;-524;1
3554;-490;1
3554;-496;1
3554;-463;1
3554;-482;1
3554;-460;1
3554;-496;1
3554;-494;1
3554;-488;1
3554;-460;1
3554;-459;1
3554;-454;1
3554;-484;1
3554;-465;1
3554;-475;1
3554;-455;1
3554;-446;1
3554;-411;1
3554;-435;1
3554;-457;1
3554;-455;1
3554;-437;1
3554;-429;1
3554;-420;1
3554;-425;1
3554;-445;1
3554;-446;1
3554;-467;1
3554;-456;1
3554;-415;1
3554;-445;1
3554;-442;1
3634;-471;1
3634;-452;1
3634;-453;1
3634;-425;1
3634;-426;1
3634;-397;1
3634;-435;1
3634;-447;1
3634;-451;1
3634;-425;1
3634;-436;1
3634;-416;1
3634;-437;1
3634;-437;1
3634;-473;1
3634;-441;1
3634;-436;1
3634;-414;1
3634;-450;1
3634;-439;1
3634;-467;1
3634;-451;1
3634;-467;1
3634;-463;1
3634;-464;1
3634;-473;1
3634;-519;1
3634;-510;1
3634;-510;1
3634;-507;1
3634;-491;1
3634;-485;1
3634;-513;1
3634;-525;1
3634;-529;1
3634;-497;1
3634;-473;1
3634;-478;1
3634;-497;1
3634;-483;1
3634;-511;1
3634;-497;1
3634;-506;1
3634;-461;1
3634;-472;1
3634;-490;1
3634;-520;1
3634;-525;1
3656;-501;1
3656;-505;1
3656;-514;1
3656;-503;1
3656;-546;1
3656;-542;1
3656;-554;1
3656;-520;1
3656;-526;1
3656;-506;1
3656;-528;1
3656;-540;1
3656;-553;1
3656;-515;1
3656;-545;1
3656;-515;1
3656;-538;1
3656;-566;1
3656;-553;1
3656;-573;1
3656;-516;1
3656;-501;1
3656;-537;1
3656;-555;1
3656;-563;1
3656;-564;1
3656;-529;1
3656;-503;1
3656;-527;1
3656;-508;1
3656;-515;1
3656;-519;1
3656;-546;1
3656;-492;1
3656;-477;1
3656;-457;1
3656;-524;1
3656;-519;1
3656;-503;1
3656;-476;1
3656;-501;1
3656;-487;1
3656;-497;1
3656;-489;1
3656;-551;1
3656;-539;1
3656;-516;1
3656;-471;1
3656;-517;1
3656;-533;1
3656;-565;1
3656;-544;1
3656;-544;1
3656;-548;1
3706;-516;1
3706;-531;1
3706;-563;1
3706;-556;1
3706;-576;1
3706;-576;1
3706;-532;1
3706;-552;1
3706;-560;1
3706;-604;1
3706;-624;1
3706;-570;1
3706;-573;1
3706;-600;1
3706;-623;1
3706;-600;1
3706;-607;1
3706;-635;1
3706;-618;1
3706;-582;1
3706;-571;1
3706;-583;1
3706;-623;1
3706;-617;1
3706;-560;1
3706;-547;1
3706;-571;1
3706;-570;1
3706;-589;1
3706;-603;1
3706;-577;1
3706;-562;1
3706;-567;1
3706;-547;1
3706;-564;1
3706;-564;1
3706;-598;1
3706;-564;1
3706;-571;1
3706;-533;1
3706;-558;1
3706;-605;1
3706;-592;1
3706;-565;1
3706;-563;1
3706;-547;1
3706;-563;1
3706;-562;1
3706;-545;1
3706;-577;1
3706;-541;1
3706;-521;1
3706;-508;1
3706;-526;1
3757;-537;1
3757;-545;1
3757;-555;1
3757;-512;1
3757;-501;1
3757;-489;1
3757;-537;1
3757;-547;1
3757;-543;1
3757;-507;1
3757;-515;1
3757;-493;1
3757;-491;1
3757;-492;1
3757;-529;1
3757;-527;1
3757;-510;1
3757;-473;1
3757;-488;1
3757;-479;1
3757;-509;1
3757;-492;1
3757;-491;1
3757;-470;1
3757;-425;1
3757;-449;1
3757;-495;1
3757;-470;1
3757;-476;1
3757;-448;1
3757;-460;1
3757;-467;1
3757;-473;1
3757;-466;1
3757;-512;1
3757;-472;1
3757;-467;1
3757;-459;1
3757;-486;1
3757;-477;1
3757;-507;1
3757;-490;1
3757;-477;1
3757;-447;1
3757;-438;1
3757;-451;1
3757;-474;1
3757;-455;1
3811;-405;1
3811;-404;1
3811;-421;1
3811;-410;1
3811;-434;1
3811;-440;1
3811;-471;1
3811;-420;1
3811;-434;1
3811;-416;1
3811;-432;1
3811;-472;1
3811;-470;1
3811;-479;1
3811;-493;1
3811;-485;1
3811;-537;1
3811;-626;1
3811;-682;1
3811;-754;1
3811;-814;1
3811;-851;1
3811;-911;1
3811;-913;1
3811;-946;1
3811;-935;1
3811;-941;1
3811;-856;1
3811;-799;1
3811;-670;1
3811;-568;1
3811;-543;1
3811;-526;1
3811;-436;1
3811;-322;1
3811;-230;1
3811;-236;1
3811;-247;1
3811;-259;1
3811;-261;1
3811;-300;1
3811;-402;1
3811;-358;1
3811;-355;1
3811;-403;1
3811;-340;1
3811;-411;1
3811;-403;1
3811;-460;1
3811;-472;1
3811;-503;1
3811;-495;1
3811;-522;1
3811;-494;1
3914;-481;1
3914;-467;1
3914;-506;1
3914;-563;1
3914;-487;1
3914;-488;1
3914;-459;1
3914;-377;1
3914;-462;1
3914;-458;1
3914;-492;1
3914;-449;1
3914;-442;1
3914;-457;1
3914;-488;1
3914;-479;1
3914;-519;1
3914;-520;1
3914;-526;1
3914;-544;1
3914;-479;1
3914;-487;1
3914;-537;1
3914;-442;1
3914;-498;1
3914;-484;1
3914;-483;1
3914;-467;1
3914;-480;1
3914;-499;1
3914;-492;1
3914;-473;1
3914;-471;1
3914;-446;1
3914;-475;1
3914;-587;1
3914;-520;1
3914;-517;1
3914;-503;1
3914;-392;1
3914;-504;1
3914;-534;1
3914;-569;1
3914;-529;1
3914;-525;1
3914;-502;1
3914;-524;1
3914;-510;1
3914;-521;1
3914;-532;1
3914;-534;1
3914;-569;1
3914;-524;1
3914;-500;1
3914;-514;1
3914;-567;1
3914;-640;1
3914;-595;1
3914;-570;1
3914;-566;1
3914;-586;1
3914;-611;1
3914;-586;1
3914;-556;1
3914;-535;1
3914;-568;1
3914;-552;1
3914;-544;1
3914;-554;1
3914;-539;1
3914;-525;1
3914;-487;1
3929;-490;1
3929;-468;1
3929;-492;1
3929;-489;1
3929;-504;1
3929;-453;1
3929;-438;1
3929;-422;1
3929;-477;1
3929;-459;1
3929;-442;1
3929;-409;1
3929;-410;1
3929;-424;1
3929;-432;1
3929;-411;1
3929;-446;1
3929;-420;1
3929;-418;1
3929;-411;1
3929;-428;1
3929;-419;1
3929;-460;1
3929;-452;1
3929;-442;1
3929;-429;1
3929;-432;1
3929;-450;1
3929;-488;1
3929;-478;1
3929;-452;1
3929;-406;1
3929;-433;1
3929;-436;1
3929;-449;1
3929;-443;1
3980;-471;1
3980;-428;1
3980;-421;1
3980;-406;1
3980;-426;1
3980;-440;1
3980;-467;1
3980;-471;1
3980;-448;1
3980;-393;1
3980;-429;1
3980;-468;1
3980;-500;1
3980;-447;1
3980;-449;1
3980;-435;1
3980;-471;1
3980;-449;1
3980;-475;1
3980;-475;1
3980;-507;1
3980;-469;1
3980;-477;1
3980;-467;1
3980;-504;1
3980;-513;1
3980;-539;1
3980;-507;1
3980;-483;1
3980;-492;1
3980;-518;1
3980;-550;1
3980;-551;1
3980;-500;1
3980;-504;1
3980;-520;1
3980;-497;1
3980;-513;1
3980;-530;1
3980;-540;1
3980;-507;1
3980;-502;1
3980;-497;1
3980;-520;1
3980;-546;1
3980;-530;1
3980;-545;1
3980;-502;1
3980;-483;1
3980;-477;1
3980;-539;1
3980;-523;1
3980;-509;1
3980;-506;1
4033;-487;1
4033;-495;1
4033;-500;1
4033;-490;1
4033;-537;1
4033;-516;1
4033;-499;1
4033;-471;1
4033;-497;1
4033;-495;1
4033;-526;1
4033;-534;1
4033;-504;1
4033;-500;1
4033;-490;1
4033;-499;1
4033;-543;1
4033;-510;1
4033;-500;1
4033;-493;1
4033;-496;1
4033;-485;1
4033;-505;1
4033;-509;1
4033;-535;1
4033;-497;1
4033;-495;1
4033;-495;1
4033;-515;1
4033;-531;1
4033;-534;1
4033;-535;1
4033;-545;1
4033;-501;1
4033;-512;1
4033;-533;1
4033;-561;1
4033;-549;1
4033;-545;1
4033;-522;1
4033;-534;1
4033;-551;1
4033;-537;1
4033;-558;1
4033;-571;1
4033;-522;1
4033;-522;1
4033;-538;1
4087;-576;1
4087;-581;1
4087;-591;1
4087;-574;1
4087;-592;1
4087;-554;1
4087;-582;1
4087;-610;1
4087;-630;1
4087;-601;1
4087;-588;1
4087;-569;1
4087;-586;1
4087;-590;1
4087;-639;1
4087;-623;1
4087;-608;1
4087;-585;1
4087;-589;1
4087;-596;1
4087;-589;1
4087;-598;1
4087;-600;1
4087;-588;1
4087;-558;1
4087;-541;1
4087;-587;1
4087;-583;1
4087;-563;1
4087;-555;1
4087;-528;1
4087;-534;1
4087;-549;1
4087;-526;1
4087;-555;1
4087;-538;1
4087;-536;1
4087;-502;1
4087;-525;1
4087;-521;1
4087;-560;1
4087;-545;1
4087;-544;1
4087;-504;1
4087;-512;1
4087;-515;1
4087;-539;1
4087;-551;1
4087;-510;1
4087;-524;1
4087;-518;1
4087;-484;1
4087;-494;1
4087;-529;1
4137;-549;1
4137;-479;1
4137;-470;1
4137;-464;1
4137;-491;1
4137;-507;1
4137;-497;1
4137;-471;1
4137;-485;1
4137;-453;1
4137;-400;1
4137;-425;1
4137;-452;1
4137;-443;1
4137;-420;1
4137;-385;1
4137;-407;1
4137;-410;1
4137;-419;1
4137;-428;1
4137;-449;1
4137;-410;1
4137;-410;1
4137;-393;1
4137;-428;1
4137;-457;1
4137;-467;1
4137;-423;1
4137;-419;1
4137;-444;1
4137;-434;1
4137;-453;1
4137;-466;1
4137;-451;1
4137;-469;1
4137;-421;1
4137;-421;1
4137;-423;1
4137;-478;1
4137;-457;1
4137;-411;1
4137;-399;1
4137;-407;1
4137;-428;1
4137;-392;1
4137;-408;1
4137;-445;1
4137;-444;1
4137;-402;1
4137;-380;1
4137;-450;1
4137;-456;1
4137;-451;1
4137;-438;1
4191;-430;1
4191;-446;1
4191;-458;1
4191;-448;1
4191;-471;1
4191;-486;1
4191;-429;1
4191;-425;1
4191;-450;1
4191;-429;1
4191;-461;1
4191;-472;1
4191;-450;1
4191;-443;1
4191;-444;1
4191;-431;1
4191;-473;1
4191;-505;1
4191;-468;1
4191;-472;1
4191;-480;1
4191;-461;1
4191;-494;1
4191;-506;1
4191;-555;1
4191;-513;1
4191;-522;1
4191;-513;1
4191;-551;1
4191;-549;1
4191;-592;1
4191;-583;1
4191;-596;1
4191;-563;1
4191;-573;1
4191;-595;1
4191;-634;1
4191;-635;1
4191;-630;1
4191;-611;1
4191;-627;1
4191;-619;1
4191;-648;1
4191;-657;1
4191;-678;1
4191;-626;1
4191;-632;1
4191;-629;1
4245;-646;1
4245;-660;1
4245;-669;1
4245;-642;1
4245;-646;1
4245;-605;1
4245;-615;1
4245;-647;1
4245;-662;1
4245;-623;1
4245;-625;1
4245;-585;1
4245;-597;1
4245;-570;1
4245;-600;1
4245;-593;1
4245;-578;1
4245;-562;1
4245;-536;1
4245;-555;1
4245;-573;1
4245;-557;1
4245;-561;1
4245;-556;1
4245;-519;1
4245;-518;1
4245;-533;1
4245;-570;1
4245;-585;1
4245;-560;1
4245;-553;1
4245;-547;1
4245;-551;1
4245;-570;1
4245;-586;1
4245;-603;1
4245;-555;1
4245;-541;1
4245;-566;1
4245;-556;1
4245;-576;1
4245;-593;1
4245;-572;1
4245;-563;1
4245;-552;1
4245;-531;1
4245;-587;1
4245;-579;1
4245;-564;1
4245;-541;1
4245;-547;1
4245;-536;1
4245;-553;1
4245;-551;1
4324;-591;1
4324;-549;1
4324;-538;1
4324;-510;1
4324;-548;1
4324;-545;1
4324;-571;1
4324;-550;1
4324;-558;1
4324;-515;1
4324;-516;1
4324;-528;1
4324;-558;1
4324;-545;1
4324;-537;1
4324;-521;1
4324;-505;1
4324;-508;1
4324;-505;1
4324;-516;1
4324;-535;1
4324;-486;1
4324;-449;1
4324;-466;1
4324;-462;1
4324;-482;1
4324;-490;1
4324;-465;1
4324;-466;1
4324;-428;1
4324;-422;1
4324;-462;1
4324;-483;1
4324;-445;1
4324;-437;1
4324;-410;1
4324;-429;1
4324;-415;1
4324;-461;1
4324;-457;1
4324;-451;1
4324;-403;1
4324;-420;1
4324;-412;1
4324;-451;1
4324;-425;1
4324;-440;1
4324;-442;1
4324;-392;1
4324;-384;1
4324;-432;1
4324;-432;1
4324;-454;1
4324;-404;1
4324;-397;1
4324;-412;1
4324;-443;1
4324;-426;1
4324;-439;1
4324;-455;1
4324;-426;1
4324;-401;1
4324;-412;1
4324;-395;1
4324;-434;1
4324;-463;1
4324;-434;1
4324;-409;1
4324;-408;1
4324;-398;1
4324;-472;1
4324;-462;1
4375;-452;1
4375;-443;1
4375;-460;1
4375;-439;1
4375;-456;1
4375;-462;1
4375;-513;1
4375;-518;1
4375;-479;1
4375;-431;1
4375;-486;1
4375;-495;1
4375;-517;1
4375;-499;1
4375;-509;1
4375;-484;1
4375;-502;1
4375;-496;1
4375;-523;1
4375;-523;1
4375;-540;1
4375;-509;1
4375;-493;1
4375;-483;1
4375;-521;1
4375;-526;1
4375;-550;1
4375;-475;1
4375;-464;1
4375;-494;1
4375;-502;1
4375;-482;1
4375;-491;1
4375;-486;1
4375;-498;1
4375;-483;1
4375;-445;1
4375;-495;1
4375;-551;1
4375;-500;1
4375;-491;1
4375;-456;1
4375;-462;1
4375;-478;1
4375;-530;1
4375;-509;1
4375;-519;1
4375;-485;1
4375;-503;1
4375;-509;1
4375;-535;1
4375;-524;1
4375;-562;1
4375;-548;1
4441;-527;1
4441;-510;1
4441;-560;1
4441;-576;1
4441;-600;1
4441;-556;1
4441;-555;1
4441;-522;1
4441;-552;1
4441;-537;1
4441;-549;1
4441;-576;1
4441;-532;1
4441;-530;1
4441;-532;1
4441;-521;1
4441;-536;1
4441;-548;1
4441;-536;1
4441;-498;1
4441;-483;1
4441;-485;1
4441;-547;1
4441;-534;1
4441;-520;1
4441;-502;1
4441;-510;1
4441;-481;1
4441;-477;1
4441;-454;1
4441;-506;1
4441;-492;1
4441;-459;1
4441;-422;1
4441;-439;1
4441;-483;1
4441;-474;1
4441;-467;1
4441;-463;1
4441;-435;1
4441;-446;1
4441;-448;1
4441;-454;1
4441;-447;1
4441;-470;1
4441;-446;1
4441;-449;1
4441;-431;1
4441;-469;1
4441;-485;1
4441;-506;1
4441;-434;1
4441;-440;1
4441;-467;1
4441;-465;1
4441;-469;1
4441;-493;1
4441;-498;1
4441;-496;1
4441;-457;1
4441;-451;1
4441;-510;1
4441;-556;1
4441;-529;1
4441;-514;1
4441;-493;1
4478;-518;1
4478;-518;1
4478;-535;1
4478;-541;1
4478;-558;1
4478;-517;1
4478;-497;1
4478;-505;1
4478;-518;1
4478;-515;1
4478;-519;1
4478;-517;1
4478;-459;1
4478;-427;1
4478;-464;1
4478;-476;1
4478;-509;1
4478;-468;1
4478;-476;1
4478;-458;1
4478;-482;1
4478;-475;1
4478;-504;1
4478;-544;1
4478;-496;1
4478;-496;1
4478;-509;1
4478;-529;1
4478;-605;1
4478;-644;1
4478;-723;1
4478;-756;1
4478;-834;1
4478;-855;1
4478;-984;1
4478;-1060;1
4530;-1066;1
4530;-1034;1
4530;-1020;1
4530;-1024;1
4530;-995;1
4530;-847;1
4530;-742;1
4530;-713;1
4530;-631;1
4530;-576;1
4530;-554;1
4530;-588;1
4530;-409;1
4530;-374;1
4530;-386;1
4530;-302;1
4530;-393;1
4530;-408;1
4530;-460;1
4530;-480;1
4530;-474;1
4530;-462;1
4530;-485;1
4530;-524;1
4530;-541;1
4530;-570;1
4530;-613;1
4530;-650;1
4530;-587;1
4530;-564;1
4530;-586;1
4530;-531;1
4530;-616;1
4530;-576;1
4530;-572;1
4530;-539;1
4530;-543;1
4530;-544;1
4530;-562;1
4530;-568;1
4530;-537;1
4530;-503;1
4530;-479;1
4530;-570;1
4530;-538;1
4530;-521;1
4530;-525;1
4530;-434;1
4582;-499;1
4582;-515;1
4582;-523;1
4582;-495;1
4582;-513;1
4582;-530;1
4582;-478;1
4582;-433;1
4582;-465;1
4582;-464;1
4582;-505;1
4582;-532;1
4582;-467;1
4582;-459;1
4582;-467;1
4582;-379;1
4582;-497;1
4582;-502;1
4582;-476;1
4582;-464;1
4582;-500;1
4582;-506;1
4582;-552;1
4582;-558;1
4582;-560;1
4582;-561;1
4582;-563;1
4582;-612;1
4582;-621;1
4582;-613;1
4582;-618;1
4582;-522;1
4582;-585;1
4582;-592;1
4582;-597;1
4582;-635;1
4582;-659;1
4582;-672;1
4582;-768;1
4582;-717;1
4582;-724;1
4582;-726;1
4582;-746;1
4582;-722;1
4582;-740;1
4582;-693;1
4582;-677;1
4582;-669;1
4582;-709;1
4582;-718;1
4582;-716;1
4582;-675;1
4582;-657;1
4582;-650;1
4667;-638;1
4667;-654;1
4667;-675;1
4667;-617;1
4667;-600;1
4667;-601;1
4667;-588;1
4667;-601;1
4667;-615;1
4667;-580;1
4667;-588;1
4667;-539;1
4667;-524;1
4667;-563;1
4667;-594;1
4667;-565;1
4667;-566;1
4667;-535;1
4667;-551;1
4667;-543;1
4667;-566;1
4667;-577;1
4667;-601;1
4667;-571;1
4667;-556;1
4667;-583;1
4667;-623;1
4667;-593;1
4667;-617;1
4667;-595;1
4667;-578;1
4667;-567;1
4667;-577;1
4667;-591;1
4667;-607;1
4667;-601;1
4667;-568;1
4667;-553;1
4667;-560;1
4667;-554;1
4667;-586;1
4667;-580;1
4667;-576;1
4667;-528;1
4667;-547;1
4667;-533;1
4667;-564;1
4667;-551;1
4667;-560;1
4667;-523;1
4667;-529;1
4667;-491;1
4667;-536;1
4667;-573;1
4687;-535;1
4687;-542;1
4687;-536;1
4687;-511;1
4687;-543;1
4687;-536;1
4687;-575;1
4687;-572;1
4687;-537;1
4687;-519;1
4687;-548;1
4687;-560;1
4687;-584;1
4687;-572;1
4687;-581;1
4687;-547;1
4687;-536;1
4687;-552;1
4687;-567;1
4687;-573;1
4687;-568;1
4687;-535;1
4687;-544;1
4687;-524;1
4687;-546;1
4687;-556;1
4687;-601;1
4687;-561;1
4687;-538;1
4687;-542;1
4687;-542;1
4687;-563;1
4687;-580;1
4687;-571;1
4687;-581;1
4687;-531;1
4687;-520;1
4687;-533;1
4687;-584;1
4687;-568;1
4687;-568;1
4687;-568;1
4687;-526;1
4687;-551;1
4687;-575;1
4687;-592;1
4687;-623;1
4687;-562;1
4740;-559;1
4740;-566;1
4740;-589;1
4740;-599;1
4740;-593;1
4740;-602;1
4740;-579;1
4740;-561;1
4740;-573;1
4740;-591;1
4740;-612;1
4740;-612;1
4740;-573;1
4740;-565;1
4740;-583;1
4740;-575;1
4740;-610;1
4740;-618;1
4740;-614;1
4740;-600;1
4740;-590;1
4740;-582;1
4740;-626;1
4740;-627;1
4740;-621;1
4740;-609;1
4740;-607;1
4740;-573;1
4740;-617;1
4740;-617;1
4740;-632;1
4740;-608;1
4740;-607;1
4740;-561;1
4740;-580;1
4740;-581;1
4740;-609;1
4740;-618;1
4740;-575;1
4740;-539;1
4740;-581;1
4740;-587;1
4740;-599;1
4740;-592;1
4740;-610;1
4740;-570;1
4740;-564;1
4740;-552;1
4792;-596;1
4792;-600;1
4792;-594;1
4792;-550;1
4792;-545;1
4792;-567;1
4792;-571;1
4792;-592;1
4792;-619;1
4792;-591;1
4792;-581;1
4792;-556;1
4792;-590;1
4792;-601;1
4792;-623;1
4792;-601;1
4792;-608;1
4792;-565;1
4792;-555;1
4792;-587;1
4792;-618;1
4792;-599;1
4792;-588;1
4792;-552;1
4792;-554;1
4792;-565;1
4792;-588;1
4792;-580;1
4792;-612;1
4792;-583;1
4792;-531;1
4792;-546;1
4792;-564;1
4792;-553;1
4792;-567;1
4792;-533;1
4792;-507;1
4792;-482;1
4792;-509;1
4792;-537;1
4792;-555;1
4792;-522;1
4792;-519;1
4792;-493;1
4792;-497;1
4792;-477;1
4792;-511;1
4792;-518;1
4848;-512;1
4848;-482;1
4848;-478;1
4848;-478;1
4848;-506;1
4848;-494;1
4848;-496;1
4848;-487;1
4848;-478;1
4848;-447;1
4848;-493;1
4848;-501;1
4848;-535;1
4848;-506;1
4848;-520;1
4848;-496;1
4848;-511;1
4848;-528;1
4848;-532;1
4848;-579;1
4848;-558;1
4848;-530;1
4848;-543;1
4848;-562;1
4848;-588;1
4848;-572;1
4848;-594;1
4848;-548;1
4848;-548;1
4848;-553;1
4848;-584;1
4848;-587;1
4848;-556;1
4848;-546;1
4848;-536;1
4848;-520;1
4848;-527;1
4848;-533;1
4848;-556;1
4848;-530;1
4848;-511;1
4848;-476;1
4848;-508;1
4848;-507;1
4848;-535;1
4848;-509;1
4848;-522;1
4848;-488;1
4848;-463;1
4848;-480;1
4848;-507;1
4848;-487;1
4848;-482;1
4848;-449;1
4848;-456;1
4848;-437;1
4848;-456;1
4848;-462;1
4848;-477;1
4848;-425;1
4898;-427;1
4898;-407;1
4898;-443;1
4898;-430;1
4898;-451;1
4898;-441;1
4898;-447;1
4898;-416;1
4898;-433;1
4898;-447;1
4898;-472;1
4898;-476;1
4898;-458;1
4898;-450;1
4898;-445;1
4898;-466;1
4898;-465;1
4898;-491;1
4898;-485;1
4898;-447;1
4898;-453;1
4898;-449;1
4898;-487;1
4898;-508;1
4898;-489;1
4898;-486;1
4898;-487;1
4898;-445;1
4898;-464;1
4898;-498;1
4898;-488;1
4898;-473;1
4898;-459;1
4898;-439;1
4898;-457;1
4898;-472;1
4898;-460;1
4898;-511;1
4898;-488;1
4898;-437;1
4898;-468;1
4898;-471;1
4898;-487;1
4898;-485;1
4898;-495;1
4898;-454;1
4898;-434;1
4898;-432;1
4898;-454;1
4898;-501;1
4898;-483;1
4898;-468;1
4898;-463;1
4898;-454;1
4954;-475;1
4954;-482;1
4954;-511;1
4954;-493;1
4954;-482;1
4954;-466;1
4954;-486;1
4954;-476;1
4954;-513;1
4954;-505;1
4954;-514;1
4954;-454;1
4954;-451;1
4954;-485;1
4954;-525;1
4954;-509;1
4954;-489;1
4954;-499;1
4954;-489;1
4954;-495;1
4954;-492;1
4954;-485;1
4954;-533;1
4954;-519;1
4954;-463;1
4954;-477;1
4954;-529;1
4954;-534;1
4954;-541;1
4954;-498;1
4954;-502;1
4954;-494;1
4954;-482;1
4954;-488;1
4954;-499;1
4954;-495;1
4954;-499;1
4954;-442;1
4954;-462;1
4954;-462;1
4954;-509;1
4954;-494;1
4954;-499;1
4954;-463;1
4954;-466;1
4954;-465;1
4954;-496;1
4954;-495;1
5010;-502;1
5010;-485;1
5010;-485;1
5010;-439;1
5010;-461;1
5010;-487;1
5010;-518;1
5010;-478;1
5010;-474;1
5010;-448;1
5010;-482;1
5010;-469;1
5010;-508;1
5010;-510;1
5010;-500;1
5010;-453;1
5010;-467;1
5010;-491;1
5010;-476;1
5010;-503;1
5010;-510;1
5010;-479;1
5010;-475;1
5010;-446;1
5010;-510;1
5010;-510;1
5010;-504;1
5010;-473;1
5010;-489;1
5010;-469;1
5010;-483;1
5010;-472;1
5010;-521;1
5010;-512;1
5010;-473;1
5010;-466;1
5010;-474;1
5010;-479;1
5010;-497;1
5010;-495;1
5010;-495;1
5010;-483;1
5010;-445;1
5010;-465;1
5010;-509;1
5010;-506;1
5010;-494;1
5010;-489;1
5010;-462;1
5010;-473;1
5010;-502;1
5010;-495;1
5010;-544;1
5010;-495;1
5010;-482;1
5010;-464;1
5010;-500;1
5010;-484;1
5010;-514;1
5010;-493;1
5061;-501;1
5061;-476;1
5061;-472;1
5061;-484;1
5061;-526;1
5061;-501;1
5061;-499;1
5061;-462;1
5061;-475;1
5061;-462;1
5061;-475;1
5061;-506;1
5061;-529;1
5061;-465;1
5061;-468;1
5061;-471;1
5061;-487;1
5061;-482;1
5061;-498;1
5061;-494;1
5061;-495;1
5061;-463;1
5061;-457;1
5061;-506;1
5061;-506;1
5061;-492;1
5061;-495;1
5061;-463;1
5061;-478;1
5061;-470;1
5061;-494;1
5061;-518;1
5061;-508;1
5061;-454;1
5061;-463;1
5061;-494;1
5061;-480;1
5061;-485;1
5061;-496;1
5061;-474;1
5061;-453;1
5061;-450;1
5061;-468;1
5061;-494;1
5061;-498;1
5061;-460;1
5061;-452;1
5061;-448;1
5117;-428;1
5117;-449;1
5117;-476;1
5117;-469;1
5117;-448;1
5117;-414;1
5117;-436;1
5117;-431;1
5117;-463;1
5117;-445;1
5117;-461;1
5117;-439;1
5117;-426;1
5117;-428;1
5117;-485;1
5117;-491;1
5117;-472;1
5117;-470;1
5117;-455;1
5117;-460;1
5117;-472;1
5117;-470;1
5117;-510;1
5117;-506;1
5117;-457;1
5117;-450;1
5117;-477;1
5117;-474;1
5117;-488;1
5117;-501;1
5117;-472;1
5117;-460;1
5117;-441;1
5117;-460;1
5117;-504;1
5117;-474;1
5117;-475;1
5117;-444;1
5117;-461;1
5117;-445;1
5117;-472;1
5117;-473;1
5117;-501;1
5117;-462;1
5117;-450;1
5117;-446;1
5117;-467;1
5117;-481;1
5117;-499;1
5117;-472;1
5117;-471;1
5117;-428;1
5117;-438;1
5117;-470;1
5170;-478;1
5170;-474;1
5170;-450;1
5170;-440;1
5170;-457;1
5170;-453;1
5170;-485;1
5170;-500;1
5170;-499;1
5170;-447;1
5170;-466;1
5170;-460;1
5170;-485;1
5170;-493;1
5170;-503;1
5170;-474;1
5170;-475;1
5170;-463;1
5170;-458;1
5170;-490;1
5170;-508;1
5170;-472;1
5170;-479;1
5170;-455;1
5170;-471;1
5170;-481;1
5170;-520;1
5170;-510;1
5170;-488;1
5170;-454;1
5170;-483;1
5170;-478;1
5170;-516;1
5170;-494;1
5170;-498;1
5170;-490;1
5170;-479;1
5170;-460;1
5170;-510;1
5170;-504;1
5170;-492;1
5170;-463;1
5170;-460;1
5170;-463;1
5170;-467;1
5170;-455;1
5170;-461;1
5170;-455;1
5222;-396;1
5222;-388;1
5222;-425;1
5222;-424;1
5222;-449;1
5222;-460;1
5222;-433;1
5222;-428;1
5222;-432;1
5222;-436;1
5222;-483;1
5222;-468;1
5222;-741;1
5222;-741;1
5222;-741;1
5222;-741;1
5222;-741;1
5222;-741;1
5222;-741;1
5222;-741;1
5222;-741;1
5222;-741;1
5222;-741;1
5222;-741;1
5222;-741;1
5222;-803;1
5222;-861;1
5222;-933;1
5222;-1024;1
5222;-1030;1
5222;-1045;1
5222;-1034;1
5222;-1042;1
5222;-962;1
5222;-894;1
5222;-774;1
5222;-609;1
5222;-591;1
5222;-555;1
5222;-463;1
5222;-387;1
5222;-322;1
5222;-297;1
5222;-312;1
5222;-332;1
5222;-297;1
5222;-316;1
5222;-351;1
5222;-373;1
5222;-497;1
5222;-451;1
5222;-418;1
5222;-429;1
5222;-340;1
5222;-470;1
5222;-504;1
5222;-528;1
5222;-493;1
5222;-495;1
5222;-521;1
5273;-500;1
5273;-512;1
5273;-535;1
5273;-516;1
5273;-495;1
5273;-512;1
5273;-465;1
5273;-469;1
5273;-470;1
5273;-375;1
5273;-460;1
5273;-426;1
5273;-425;1
5273;-408;1
5273;-474;1
5273;-475;1
5273;-480;1
5273;-485;1
5273;-455;1
5273;-457;1
5273;-465;1
5273;-537;1
5273;-503;1
5273;-489;1
5273;-431;1
5273;-339;1
5273;-448;1
5273;-435;1
5273;-452;1
5273;-462;1
5273;-445;1
5273;-425;1
5273;-421;1
5273;-421;1
5273;-479;1
5273;-464;1
5273;-467;1
5273;-544;1
5273;-498;1
5273;-473;1
5273;-503;1
5273;-437;1
5273;-551;1
5273;-488;1
5273;-482;1
5273;-467;1
5273;-488;1
5273;-499;1
6723;28517;0
6723;-439;0
6723;-425;0
6723;-422;0
6723;-417;0
6723;-390;0
6723;-399;0
6723;-412;0
6723;-410;0
6723;-451;0
6723;-425;0
6723;-400;0
6723;-391;0
6723;-428;0
6723;-415;0
6723;-438;0
6723;-451;0
6723;-432;0
6723;-411;0
6723;-411;0
6723;-420;0
6723;-470;0
6723;-447;0
6723;-453;0
6723;-424;0
6723;-430;0
6723;-412;0
6723;-444;0
6723;-449;0
6723;-471;0
6723;-407;0
6723;-402;0
6723;-393;0
6723;-415;0
6723;-430;0
6723;-418;0
6723;-419;0
6723;-418;0
6723;-382;0
6723;-405;0
6723;-425;0
6723;-448;0
6723;-433;0
6723;-435;0
6723;-406;0
6723;-422;0
6723;-413;0
6723;-440;0
6723;-459;0
6723;-462;0
6723;-405;0
6723;-420;0
6723;-430;0
6723;-441;0
6723;-441;0
6723;-462;0
6723;-440;0
6723;-439;0
6723;-410;0
6723;-449;0
6723;-475;0
6723;-482;0
6723;-450;0
6723;-460;0
6723;-435;0
6723;-440;0
6723;-456;0
6723;-485;0
6723;-479;0
6723;-453;0
6723;-442;0
6723;-440;0
6723;-466;0
6723;-483;0
6723;-459;0
6723;-484;0
6723;-450;0
6723;-447;0
6723;-427;0
6723;-486;0
6723;-482;0
6723;-487;0
6723;-459;0
6723;-472;0
6723;-448;0
6723;-469;0
6723;-469;0
6723;-493;0
6723;-481;0
6723;-462;0
6723;-438;0
6723;-470;0
6723;-459;0
6723;-484;0
6723;-472;0
6723;-469;0
6723;-447;0
6723;-446;0
6723;-454;0
6723;-478;0
6723;-490;0
6723;-468;0
6723;-459;0
6723;-468;0
6723;-455;0
6723;-482;0
6723;-490;0
6723;-522;0
6723;-473;0
6723;-471;0
6723;-463;0
6723;-498;0
6723;-494;0
6723;-505;0
6723;-502;0
6723;-494;0
6723;-451;0
6723;-454;0
6723;-502;0
6723;-497;0
6723;-489;0
6723;-484;0
6723;-457;0
6723;-465;0
6723;-469;0
6723;-458;0
6723;-488;0
6723;-484;0
6723;-427;0
6723;-421;0
6723;-441;0
6723;-435;0
6723;-458;0
6723;-440;0
6723;-442;0
6723;-430;0
6723;-407;0
6723;-435;0
6723;-463;0
6723;-476;0
6723;-446;0
6723;-447;0
6723;-456;0
6723;-450;0
6723;-457;0
6723;-495;0
6723;-494;0
6723;-466;0
6723;-456;0
6723;-446;0
6723;-472;0
6723;-491;0
6723;-474;0
6723;-500;0
6723;-459;0
6723;-462;0
6723;-435;0
6723;-496;0
6723;-497;0
6723;-503;0
6723;-475;0
6723;-480;0
6723;-488;0
6723;-500;0
6723;-493;0
6723;-541;0
6723;-524;0
6723;-504;0
6723;-473;0
6723;-495;0
6723;-483;0
6723;-505;0
6723;-517;0
6723;-494;0
6723;-492;0
6723;-445;0
6723;-471;0
6723;-510;0
6723;-501;0
6723;-485;0
6723;-470;0
6723;-478;0
6723;-459;0
6723;-483;0
6723;-493;0
6723;-515;0
6723;-483;0
6723;-470;0
6723;-463;0
6723;-500;0
6723;-493;0
6723;-512;0
6723;-497;0
6723;-504;0
6723;-471;0
6723;-468;0
6723;-519;0
6723;-510;0
6723;-505;0
6723;-510;0
6723;-479;0
6723;-485;0
6723;-497;0
6723;-491;0
6723;-523;0
6723;-526;0
6723;-477;0
6723;-467;0
6723;-486;0
6723;-484;0
6723;-504;0
6723;-518;0
6723;-488;0
6723;-485;0
6723;-440;0
6723;-466;0
6723;-498;0
6723;-511;0
6723;-472;0
6723;-485;0
6723;-471;0
6723;-466;0
6723;-470;0
6723;-485;0
6723;-494;0
6723;-470;0
6723;-452;0
6723;-440;0
6723;-458;0
6723;-484;0
6723;-460;0
6723;-463;0
6723;-461;0
6723;-417;0
6723;-405;0
6723;-461;0
6723;-457;0
6723;-471;0
6723;-442;0
6723;-443;0
6723;-451;0
6723;-469;0
6723;-463;0
6723;-491;0
6723;-507;0
6723;-455;0
6723;-457;0
6723;-498;0
6723;-520;0
6723;-588;0
6723;-610;0
6723;-673;0
6723;-712;0
6723;-748;0
6723;-786;0
6723;-866;0
6723;-877;0
6723;-852;0
6723;-842;0
6723;-869;0
6723;-825;0
6723;-807;0
6723;-766;0
6723;-709;0
6723;-639;0
6723;-549;0
6723;-469;0
6723;-389;0
6723;-350;0
6723;-322;0
6723;-321;0
6723;-336;0
6723;-319;0
6723;-354;0
6723;-400;0
6723;-458;0
6723;-448;0
6723;-450;0
6723;-434;0
6723;-460;0
6723;-471;0
6723;-514;0
6723;-554;0
6723;-580;0
6723;-520;0
6723;-532;0
6723;-538;0
6723;-576;0
6723;-582;0
6723;-588;0
6723;-556;0
6723;-554;0
6723;-508;0
6723;-518;0
6723;-543;0
6723;-558;0
6723;-519;0
6723;-524;0
6723;-496;0
6723;-510;0
6723;-504;0
6723;-539;0
6723;-550;0
6723;-534;0
6723;-513;0
6723;-511;0
6723;-527;0
6723;-545;0
6723;-528;0
6723;-533;0
6723;-501;0
6723;-483;0
6723;-447;0
6723;-482;0
6723;-479;0
6723;-487;0
6723;-448;0
6723;-436;0
6723;-430;0
6723;-446;0
6723;-445;0
6723;-474;0
6723;-507;0
6723;-443;0
6723;-443;0
6723;-473;0
6723;-471;0
6723;-499;0
6723;-492;0
6723;-500;0
6723;-493;0
6723;-487;0
6723;-480;0
6723;-533;0
6723;-528;0
6723;-520;0
6723;-513;0
6723;-523;0
6723;-506;0
6723;-532;0
6723;-527;0
6723;-572;0
6723;-534;0
6723;-526;0
6723;-513;0
6723;-552;0
6723;-553;0
6723;-561;0
6723;-564;0
6723;-557;0
6723;-515;0
6723;-506;0
6723;-523;0
6723;-540;0
6723;-543;0
6723;-531;0
6723;-492;0
6723;-487;0
6723;-498;0
6723;-483;0
6723;-509;0
6723;-520;0
6723;-455;0
6723;-446;0
6723;-436;0
6723;-454;0
6723;-464;0
6723;-470;0
6723;-446;0
6723;-440;0
6723;-434;0
6723;-419;0
6723;-462;0
6723;-490;0
6723;-446;0
6723;-449;0
6723;-456;0
6723;-443;0
6723;-462;0
6723;-497;0
6723;-504;0
6723;-503;0
6723;-460;0
6723;-475;0
6723;-473;0
6723;-505;0
6723;-494;0
6723;-516;0
6723;-490;0
6723;-468;0
6723;-461;0
6723;-480;0
6723;-506;0
6723;-487;0
6723;-475;0
6723;-459;0
6723;-457;0
6723;-474;0
6723;-464;0
6723;-509;0
6723;-511;0
7472;-534;0
7472;-517;0
7472;-526;0
7472;-513;0
7472;-470;0
7472;-533;0
7472;-539;0
7472;-533;0
7472;-510;0
7472;-522;0
7472;-505;0
7472;-530;0
7472;-534;0
7472;-554;0
7472;-553;0
7472;-528;0
7472;-492;0
7472;-534;0
7472;-528;0
7472;-547;0
7472;-561;0
7472;-566;0
7472;-525;0
7472;-515;0
7472;-491;0
7472;-533;0
7472;-579;0
7472;-569;0
7472;-528;0
7472;-537;0
7472;-514;0
7472;-531;0
7472;-545;0
7472;-573;0
7472;-536;0
7472;-513;0
7472;-509;0
7472;-497;0
7472;-522;0
7472;-545;0
7472;-529;0
7472;-548;0
7472;-498;0
7472;-496;0
7472;-501;0
7472;-533;0
7472;-513;0
7472;-498;0
7472;-492;0
7472;-478;0
7472;-496;0
7472;-504;0
7472;-535;0
7472;-561;0
7472;-507;0
7472;-503;0
7472;-512;0
7472;-549;0
7472;-528;0
7472;-544;0
7472;-580;0
7472;-573;0
7472;-571;0
7472;-609;0
7472;-707;0
7472;-785;0
7472;-823;0
7472;-826;0
7472;-894;0
7472;-947;0
7472;-902;0
7472;-902;0
7472;-926;0
7472;-956;0
7472;-855;0
7472;-731;0
7472;-630;0
7472;-661;0
7472;-611;0
7472;-517;0
7472;-467;0
7472;-378;0
7472;-251;0
7472;-231;0
7472;-240;0
7472;-279;0
7472;-280;0
7472;-277;0
7472;-380;0
7472;-358;0
7472;-357;0
7472;-352;0
7472;-319;0
7472;-393;0
7472;-405;0
7472;-425;0
7472;-446;0
7472;-461;0
7472;-499;0
7472;-527;0
7472;-490;0
7472;-497;0
7472;-473;0
7472;-518;0
7472;-579;0
7472;-514;0
7472;-475;0
7472;-486;0
7472;-390;0
7472;-473;0
7472;-458;0
7472;-509;0
7472;-486;0
7472;-466;0
7472;-447;0
7472;-480;0
7472;-506;0
7472;-520;0
7472;-487;0
7472;-481;0
7472;-543;0
7472;-446;0
7472;-448;0
7472;-478;0
7472;-375;0
7472;-439;0
7472;-439;0
7472;-403;0
7472;-407;0
7472;-393;0
7472;-421;0
7472;-438;0
7472;-418;0
7472;-458;0
7472;-458;0
7472;-458;0
7472;-458;0
7472;-458;0
7472;-458;0
7472;-458;0
7472;-458;0
7472;-458;0
7472;-458;0
7472;-458;0
7472;-458;0
7472;-458;0
7472;-358;0
7472;-447;0
7472;-477;0
7472;-503;0
7472;-506;0
7472;-487;0
7472;-481;0
7472;-480;0
7472;-471;0
7472;-520;0
7472;-519;0
7472;-509;0
7472;-558;0
7472;-520;0
7472;-499;0
7472;-536;0
7472;-464;0
7472;-550;0
7472;-561;0
7472;-554;0
7472;-507;0
7472;-533;0
7472;-540;0
7472;-571;0
7472;-531;0
7472;-541;0
7472;-500;0
7472;-499;0
7472;-581;0
7472;-659;0
7472;-551;0
7472;-553;0
7472;-530;0
7472;-550;0
7472;-530;0
7472;-533;0
7472;-529;0
7472;-545;0
7472;-514;0
7472;-479;0
7472;-469;0
7472;-503;0
7472;-526;0
7472;-523;0
7472;-476;0
7472;-474;0
7472;-462;0
7472;-472;0
7472;-485;0
7472;-508;0
7472;-501;0
7472;-505;0
7472;-474;0
7472;-497;0
7472;-509;0
7472;-544;0
7472;-539;0
7472;-554;0
7472;-503;0
7472;-503;0
7472;-512;0
7472;-568;0
7472;-536;0
7472;-519;0
7472;-528;0
7472;-511;0
7472;-501;0
7472;-495;0
7472;-492;0
7472;-535;0
7472;-532;0
7472;-472;0
7472;-484;0
7472;-487;0
7472;-513;0
7472;-512;0
7472;-513;0
7472;-498;0
7472;-476;0
7472;-487;0
7472;-499;0
7472;-531;0
7472;-523;0
7472;-531;0
7472;-515;0
7472;-506;0
7472;-489;0
7472;-540;0
7472;-560;0
7472;-565;0
7472;-528;0
7472;-531;0
7472;-545;0
7472;-596;0
7472;-589;0
7472;-598;0
7472;-594;0
7472;-599;0
7472;-572;0
7472;-598;0
7472;-604;0
7472;-614;0
7472;-596;0
7472;-595;0
7472;-575;0
7472;-589;0
7472;-570;0
7472;-602;0
7472;-611;0
7472;-609;0
7472;-556;0
7472;-556;0
7472;-589;0
7472;-583;0
7472;-604;0
7472;-585;0
7472;-582;0
7472;-570;0
7472;-550;0
7472;-583;0
7472;-589;0
7472;-581;0
7472;-552;0
7472;-559;0
7472;-547;0
7472;-573;0
7472;-574;0
7472;-608;0
7472;-612;0
7472;-589;0
7472;-575;0
7472;-578;0
7472;-597;0
7472;-617;0
7472;-605;0
7472;-624;0
7472;-623;0
7472;-580;0
7472;-596;0
7472;-640;0
7472;-634;0
7472;-631;0
7472;-595;0
7472;-602;0
7472;-618;0
7472;-624;0
7472;-608;0
7472;-640;0
7472;-640;0
7472;-595;0
7472;-589;0
7472;-605;0
7472;-598;0
7472;-651;0
7472;-629;0
7472;-624;0
7472;-582;0
7472;-593;0
7472;-615;0
7472;-636;0
7472;-623;0
7472;-613;0
7472;-614;0
7472;-604;0
7472;-581;0
7472;-612;0
7472;-648;0
7472;-673;0
7472;-603;0
7472;-592;0
7472;-605;0
7472;-633;0
7472;-644;0
7472;-683;0
7472;-683;0
7472;-683;0
7472;-683;0
7472;-683;0
7472;-683;0
7472;-683;0
7472;-683;0
7472;-683;0
7472;-683;0
7472;-683;0
7472;-683;0
7472;-683;0
7472;-650;0
7472;-634;0
7472;-591;0
7472;-625;0
7472;-637;0
7472;-610;0
7472;-630;0
7472;-649;0
7472;-614;0
7472;-611;0
7472;-582;0
7472;-625;0
7472;-641;0
7472;-657;0
7472;-616;0
7472;-615;0
7472;-594;0
8376;30203;0
8376;-380;0
8376;-347;0
8376;-349;0
8376;-353;0
8376;-342;0
8376;-383;0
8376;-411;0
8376;-359;0
8376;-335;0
8376;-337;0
8376;-331;0
8376;-342;0
8376;-351;0
8376;-328;0
8376;-337;0
8376;-312;0
8376;-293;0
8376;-331;0
8376;-338;0
8376;-328;0
8376;-326;0
8376;-331;0
8376;-319;0
8376;-324;0
8376;-360;0
8376;-362;0
8376;-377;0
8376;-350;0
8376;-313;0
8376;-328;0
8376;-360;0
8376;-346;0
8376;-344;0
8376;-359;0
8376;-321;0
8376;-323;0
8376;-369;0
8376;-386;0
8376;-418;0
8376;-387;0
8376;-392;0
8376;-400;0
8376;-419;0
8376;-399;0
8376;-434;0
8376;-466;0
8376;-415;0
8376;-405;0
8376;-422;0
8376;-446;0
8376;-485;0
8376;-478;0
8376;-507;0
8376;-487;0
8376;-486;0
8376;-464;0
8376;-522;0
8376;-533;0
8376;-523;0
8376;-532;0
8376;-520;0
8376;-526;0
8376;-546;0
8376;-555;0
8376;-597;0
8376;-598;0
8376;-582;0
8376;-554;0
8376;-592;0
8376;-609;0
8376;-632;0
8376;-652;0
8376;-672;0
8376;-635;0
8376;-626;0
8376;-644;0
8376;-704;0
8376;-697;0
8376;-700;0
8376;-675;0
8376;-674;0
8376;-694;0
8376;-675;0
8376;-704;0
8376;-738;0
8376;-688;0
8376;-683;0
8376;-662;0
8376;-678;0
8376;-686;0
8376;-697;0
8376;-670;0
8376;-672;0
8376;-641;0
8376;-634;0
8376;-652;0
8376;-683;0
8376;-655;0
8376;-655;0
8376;-659;0
8376;-660;0
8376;-697;0
8376;-757;0
8376;-781;0
8376;-815;0
8376;-774;0
8376;-785;0
8376;-804;0
8376;-837;0
8376;-830;0
8376;-848;0
8376;-821;0
8376;-813;0
8376;-775;0
8376;-802;0
8376;-813;0
8376;-831;0
8376;-826;0
8376;-797;0
8376;-798;0
8376;-800;0
8376;-789;0
8376;-823;0
8376;-822;0
8376;-798;0
8376;-773;0
8376;-781;0
8376;-778;0
8376;-795;0
8376;-816;0
8376;-799;0
8376;-793;0
8376;-777;0
8376;-736;0
8376;-785;0
8376;-789;0
8376;-801;0
8376;-766;0
8376;-770;0
8376;-740;0
8376;-756;0
8376;-759;0
8376;-774;0
8376;-796;0
8376;-748;0
8376;-733;0
8376;-765;0
8376;-771;0
8376;-807;0
8376;-806;0
8376;-825;0
8376;-808;0
8376;-810;0
8376;-811;0
8376;-859;0
8376;-875;0
8376;-868;0
8376;-843;0
8376;-857;0
8376;-847;0
8376;-867;0
8376;-897;0
8376;-932;0
8376;-900;0
8376;-888;0
8376;-859;0
8376;-891;0
8376;-871;0
8376;-900;0
8376;-874;0
8376;-878;0
8376;-837;0
8376;-832;0
8376;-864;0
8376;-899;0
8376;-866;0
8376;-870;0
8376;-839;0
8376;-858;0
8376;-840;0
8376;-871;0
8376;-880;0
8376;-895;0
8376;-855;0
8376;-829;0
8376;-831;0
8376;-821;0
8376;-826;0
8376;-811;0
8376;-809;0
8376;-773;0
8376;-743;0
8376;-740;0
8376;-753;0
8376;-788;0
8376;-756;0
8376;-749;0
8376;-738;0
8376;-744;0
8376;-724;0
8376;-750;0
8376;-769;0
8376;-731;0
8376;-708;0
8376;-708;0
8376;-695;0
8376;-712;0
8376;-685;0
8376;-677;0
8376;-673;0
8376;-660;0
8376;-624;0
8376;-659;0
8376;-689;0
8376;-661;0
8376;-661;0
8376;-671;0
8376;-652;0
8376;-669;0
8376;-686;0
8376;-727;0
8376;-720;0
8376;-702;0
8376;-679;0
8376;-685;0
8376;-692;0
8376;-695;0
8376;-707;0
8376;-695;0
8376;-691;0
8376;-661;0
8376;-665;0
8376;-690;0
8376;-718;0
8376;-729;0
8376;-701;0
8376;-717;0
8376;-718;0
8376;-726;0
8376;-754;0
8376;-791;0
8376;-766;0
8376;-750;0
8376;-730;0
8376;-754;0
8376;-770;0
8376;-779;0
8376;-762;0
8376;-783;0
8376;-741;0
8376;-739;0
8376;-750;0
8376;-793;0
8376;-781;0
8376;-777;0
8376;-779;0
8376;-766;0
8376;-778;0
8376;-794;0
8376;-798;0
8376;-825;0
8376;-793;0
8376;-756;0
8376;-779;0
8376;-762;0
8376;-793;0
8376;-783;0
8376;-778;0
8376;-757;0
8376;-727;0
8376;-744;0
8376;-760;0
8376;-791;0
8376;-759;0
8376;-749;0
8376;-727;0
8376;-735;0
8376;-729;0
8376;-751;0
8376;-776;0
8376;-747;0
8376;-714;0
8376;-716;0
8376;-712;0
8376;-733;0
8376;-717;0
8376;-722;0
8376;-721;0
8376;-706;0
8376;-672;0
8376;-709;0
8376;-719;0
8376;-722;0
8376;-709;0
8376;-712;0
8376;-688;0
8376;-709;0
8376;-707;0
8376;-739;0
8376;-754;0
8376;-727;0
8376;-687;0
8376;-714;0
8376;-721;0
8376;-754;0
8376;-734;0
8376;-758;0
8376;-736;0
8376;-720;0
8376;-710;0
8376;-754;0
8376;-763;0
8376;-764;0
8376;-733;0
8376;-733;0
8376;-736;0
8376;-726;0
8376;-744;0
8376;-779;0
8376;-752;0
8376;-733;0
8376;-711;0
8376;-745;0
8376;-744;0
8376;-773;0
8376;-742;0
8376;-761;0
8376;-721;0
8376;-718;0
8376;-725;0
8376;-770;0
8376;-746;0
8376;-748;0
8376;-714;0
8376;-728;0
8376;-711;0
8376;-738;0
8376;-738;0
8376;-778;0
8376;-723;0
8376;-727;0
8376;-717;0
8376;-754;0
8376;-738;0
8376;-762;0
8376;-748;0
8376;-760;0
8376;-718;0
8376;-721;0
8376;-732;0
8376;-753;0
8376;-752;0
8376;-727;0
8376;-711;0
8376;-724;0
8376;-717;0
8376;-739;0
8376;-771;0
8376;-761;0
8376;-727;0
8376;-731;0
8376;-731;0
8376;-759;0
8376;-747;0
8376;-762;0
8376;-737;0
8376;-740;0
8376;-703;0
8376;-722;0
8376;-766;0
8376;-749;0
8376;-740;0
8376;-741;0
8376;-706;0
8376;-718;0
8376;-733;0
8376;-736;0
8376;-767;0
8376;-746;0
8376;-713;0
8376;-728;0
8376;-728;0
8376;-748;0
8376;-761;0
8376;-766;0
8376;-744;0
8376;-741;0
8376;-698;0
8376;-757;0
8376;-756;0
8376;-752;0
8376;-732;0
8376;-716;0
8376;-705;0
8376;-700;0
8376;-712;0
8376;-742;0
8376;-717;0
8376;-684;0
8376;-681;0
9622;31391;0
9622;-416;0
9622;-329;0
9622;-324;0
9622;-318;0
9622;-309;0
9622;-309;0
9622;-353;0
9622;-402;0
9622;-457;0
9622;-445;0
9622;-442;0
9622;-439;0
9622;-453;0
9622;-444;0
9622;-503;0
9622;-528;0
9622;-521;0
9622;-503;0
9622;-517;0
9622;-516;0
9622;-535;0
9622;-561;0
9622;-540;0
9622;-535;0
9622;-508;0
9622;-458;0
9622;-491;0
9622;-490;0
9622;-483;0
9622;-465;0
9622;-463;0
9622;-430;0
9622;-451;0
9622;-435;0
9622;-479;0
9622;-465;0
9622;-446;0
9622;-409;0
9622;-428;0
9622;-436;0
9622;-447;0
9622;-422;0
9622;-419;0
9622;-379;0
9622;-340;0
9622;-331;0
9622;-342;0
9622;-341;0
9622;-315;0
9622;-265;0
9622;-249;0
9622;-245;0
9622;-239;0
9622;-262;0
9622;-298;0
9622;-250;0
9622;-240;0
9622;-220;0
9622;-245;0
9622;-256;0
9622;-278;0
9622;-263;0
9622;-272;0
9622;-267;0
9622;-235;0
9622;-282;0
9622;-322;0
9622;-297;0
9622;-298;0
9622;-297;0
9622;-268;0
9622;-287;0
9622;-319;0
9622;-331;0
9622;-368;0
9622;-352;0
9622;-328;0
9622;-361;0
9622;-395;0
9622;-395;0
9622;-421;0
9622;-443;0
9622;-425;0
9622;-414;0
9622;-403;0
9622;-449;0
9622;-471;0
9622;-440;0
9622;-438;0
9622;-422;0
9622;-422;0
9622;-414;0
9622;-439;0
9622;-476;0
9622;-444;0
9622;-413;0
9622;-416;0
9622;-410;0
9622;-439;0
9622;-425;0
9622;-429;0
9622;-416;0
9622;-402;0
9622;-358;0
9622;-404;0
9622;-406;0
9622;-409;0
9622;-394;0
9622;-398;0
9622;-372;0
9622;-397;0
9622;-393;0
9622;-435;0
9622;-440;0
9622;-417;0
9622;-383;0
9622;-411;0
9622;-441;0
9622;-436;0
9622;-452;0
9622;-468;0
9622;-431;0
9622;-426;0
9622;-408;0
9622;-473;0
9622;-463;0
9622;-462;0
9622;-428;0
9622;-429;0
9622;-444;0
9622;-442;0
9622;-458;0
9622;-501;0
9622;-477;0
9622;-470;0
9622;-458;0
9622;-493;0
9622;-499;0
9622;-533;0
9622;-519;0
9622;-526;0
9622;-530;0
9622;-489;0
9622;-526;0
9622;-562;0
9622;-545;0
9622;-551;0
9622;-523;0
9622;-528;0
9622;-519;0
9622;-543;0
9622;-549;0
9622;-585;0
9622;-526;0
9622;-512;0
9622;-531;0
9622;-554;0
9622;-542;0
9622;-557;0
9622;-562;0
9622;-522;0
9622;-506;0
9622;-506;0
9622;-513;0
9622;-536;0
9622;-529;0
9622;-501;0
9622;-487;0
9622;-475;0
9622;-497;0
9622;-503;0
9622;-529;0
9622;-514;0
9622;-485;0
9622;-490;0
9622;-479;0
9622;-508;0
9622;-525;0
9622;-504;0
9622;-507;0
9622;-503;0
9622;-457;0
9622;-497;0
9622;-503;0
9622;-506;0
9622;-486;0
9622;-488;0
9622;-460;0
9622;-473;0
9622;-464;0
9622;-490;0
9622;-504;0
9622;-480;0
9622;-438;0
9622;-448;0
9622;-473;0
9622;-459;0
9622;-473;0
9622;-485;0
9622;-442;0
9622;-428;0
9622;-422;0
9622;-469;0
9622;-453;0
9622;-459;0
9622;-425;0
9622;-431;0
9622;-411;0
9622;-419;0
9622;-441;0
9622;-468;0
9622;-440;0
9622;-428;0
9622;-404;0
9622;-431;0
9622;-434;0
9622;-444;0
9622;-434;0
9622;-436;0
9622;-431;0
9622;-425;0
9622;-425;0
9622;-425;0
9622;-425;0
9622;-425;0
9622;-425;0
9622;-425;0
9622;-425;0
9622;-425;0
9622;-425;0
9622;-425;0
9622;-425;0
9622;-425;0
9622;-411;0
9622;-435;0
9622;-436;0
9622;-473;0
9622;-422;0
9622;-407;0
9622;-421;0
9622;-447;0
9622;-436;0
9622;-457;0
9622;-439;0
9622;-441;0
9622;-397;0
9622;-401;0
9622;-421;0
9622;-445;0
9622;-441;0
9622;-435;0
9622;-400;0
9622;-414;0
9622;-398;0
9622;-425;0
9622;-454;0
9622;-436;0
9622;-405;0
9622;-395;0
9622;-404;0
9622;-406;0
9622;-418;0
9622;-401;0
9622;-391;0
9622;-387;0
9622;-352;0
9622;-386;0
9622;-402;0
9622;-412;0
9622;-388;0
9622;-386;0
9622;-359;0
9622;-382;0
9622;-371;0
9622;-413;0
9622;-416;0
9622;-412;0
9622;-374;0
9622;-401;0
9622;-392;0
9622;-420;0
9622;-412;0
9622;-434;0
9622;-404;0
9622;-397;0
9622;-365;0
9622;-413;0
9622;-431;0
9622;-432;0
9622;-401;0
9622;-409;0
9622;-392;0
9622;-411;0
9622;-404;0
9622;-443;0
9622;-426;0
9622;-402;0
9622;-378;0
9622;-392;0
9622;-394;0
9622;-407;0
9622;-384;0
9622;-395;0
9622;-383;0
9622;-346;0
9622;-359;0
9622;-399;0
9622;-398;0
9622;-406;0
9622;-382;0
9622;-391;0
9622;-382;0
9622;-408;0
9622;-414;0
9622;-453;0
9622;-446;0
9622;-404;0
9622;-426;0
9622;-452;0
9622;-445;0
9622;-474;0
9622;-454;0
9622;-459;0
9622;-415;0
9622;-420;0
9622;-434;0
9622;-466;0
9622;-456;0
9622;-417;0
9622;-418;0
9622;-427;0
9622;-407;0
9622;-431;0
9622;-457;0
9622;-472;0
9622;-414;0
9622;-419;0
9622;-417;0
9622;-456;0
9622;-456;0
9622;-459;0
9622;-449;0
9622;-448;0
9622;-399;0
9622;-426;0
9622;-448;0
9622;-423;0
9622;-423;0
9622;-423;0
9622;-423;0
9622;-423;0
9622;-423;0
9622;-423;0
9622;-423;0
9622;-423;0
9622;-423;0
9622;-423;0
9622;-423;0
9622;-423;0
9622;-450;0
9622;-437;0
9622;-383;0
9622;-405;0
9622;-405;0
9622;-422;0
9622;-432;0
9622;-443;0
9622;-414;0
9622;-408;0
9622;-372;0
9622;-415;0
9622;-444;0
9622;-453;0
9622;-417;0
9622;-416;0
9622;-421;0
9622;-413;0
9622;-440;0
9622;-481;0
9622;-476;0
9622;-458;0
9622;-422;0
9622;-468;0
9622;-461;0
9622;-492;0
9622;-473;0
9622;-479;0
9622;-479;0
9622;-453;0
9622;-448;0
9622;-502;0
9622;-498;0
9622;-482;0
9622;-480;0
9622;-459;0
9622;-453;0
9622;-469;0
9622;-473;0
9622;-515;0
9622;-482;0
10628;32387;0
10628;-560;0
10628;-512;0
10628;-489;0
10628;-501;0
10628;-503;0
10628;-519;0
10628;-532;0
10628;-511;0
10628;-519;0
10628;-476;0
10628;-468;0
10628;-513;0
10628;-543;0
10628;-518;0
10628;-520;0
10628;-491;0
10628;-505;0
10628;-491;0
10628;-524;0
10628;-523;0
10628;-535;0
10628;-495;0
10628;-491;0
10628;-479;0
10628;-508;0
10628;-499;0
10628;-506;0
10628;-511;0
10628;-483;0
10628;-465;0
10628;-469;0
10628;-508;0
10628;-530;0
10628;-508;0
10628;-510;0
10628;-500;0
10628;-515;0
10628;-505;0
10628;-551;0
10628;-562;0
10628;-547;0
10628;-513;0
10628;-531;0
10628;-527;0
10628;-567;0
10628;-560;0
10628;-579;0
10628;-557;0
10628;-562;0
10628;-530;0
10628;-584;0
10628;-595;0
10628;-590;0
10628;-586;0
10628;-587;0
10628;-566;0
10628;-589;0
10628;-585;0
10628;-624;0
10628;-616;0
10628;-591;0
10628;-552;0
10628;-583;0
10628;-579;0
10628;-602;0
10628;-589;0
10628;-598;0
10628;-561;0
10628;-550;0
10628;-562;0
10628;-597;0
10628;-604;0
10628;-605;0
10628;-576;0
10628;-579;0
10628;-588;0
10628;-587;0
10628;-606;0
10628;-638;0
10628;-598;0
10628;-585;0
10628;-568;0
10628;-593;0
10628;-587;0
10628;-607;0
10628;-579;0
10628;-584;0
10628;-550;0
10628;-550;0
10628;-554;0
10628;-599;0
10628;-568;0
10628;-566;0
10628;-568;0
10628;-545;0
10628;-557;0
10628;-575;0
10628;-582;0
10628;-607;0
10628;-545;0
10628;-551;0
10628;-541;0
10628;-571;0
10628;-565;0
10628;-570;0
10628;-579;0
10628;-545;0
10628;-543;0
10628;-526;0
10628;-566;0
10628;-590;0
10628;-566;0
10628;-540;0
10628;-547;0
10628;-534;0
10628;-542;0
10628;-551;0
10628;-579;0
10628;-550;0
10628;-519;0
10628;-530;0
10628;-526;0
10628;-552;0
10628;-543;0
10628;-545;0
10628;-535;0
10628;-534;0
10628;-495;0
10628;-536;0
10628;-572;0
10628;-553;0
10628;-548;0
10628;-541;0
10628;-517;0
10628;-525;0
10628;-546;0
10628;-546;0
10628;-569;0
10628;-535;0
10628;-499;0
10628;-520;0
10628;-545;0
10628;-536;0
10628;-547;0
10628;-555;0
10628;-513;0
10628;-497;0
10628;-502;0
10628;-513;0
10628;-534;0
10628;-534;0
10628;-500;0
10628;-511;0
10628;-500;0
10628;-509;0
10628;-524;0
10628;-564;0
10628;-540;0
10628;-501;0
10628;-495;0
10628;-509;0
10628;-523;0
10628;-541;0
10628;-516;0
10628;-517;0
10628;-513;0
10628;-474;0
10628;-514;0
10628;-549;0
10628;-539;0
10628;-542;0
10628;-516;0
10628;-532;0
10628;-518;0
10628;-543;0
10628;-537;0
10628;-561;0
10628;-527;0
10628;-489;0
10628;-511;0
10628;-532;0
10628;-518;0
10628;-540;0
10628;-515;0
10628;-507;0
10628;-500;0
10628;-505;0
10628;-524;0
10628;-547;0
10628;-548;0
10628;-516;0
10628;-529;0
10628;-510;0
10628;-530;0
10628;-553;0
10628;-588;0
10628;-573;0
10628;-537;0
10628;-537;0
10628;-535;0
10628;-554;0
10628;-569;0
10628;-551;0
10628;-541;0
10628;-534;0
10628;-494;0
10628;-529;0
10628;-538;0
10628;-555;0
10628;-525;0
10628;-534;0
10628;-505;0
10628;-531;0
10628;-523;0
10628;-562;0
10628;-568;0
10628;-552;0
10628;-513;0
10628;-544;0
10628;-529;0
10628;-542;0
10628;-543;0
10628;-554;0
10628;-517;0
10628;-519;0
10628;-489;0
10628;-539;0
10628;-550;0
10628;-550;0
10628;-517;0
10628;-528;0
10628;-502;0
10628;-519;0
10628;-534;0
10628;-556;0
10628;-532;0
10628;-504;0
10628;-512;0
10628;-521;0
10628;-530;0
10628;-558;0
10628;-543;0
10628;-549;0
10628;-542;0
10628;-514;0
10628;-538;0
10628;-585;0
10628;-573;0
10628;-574;0
10628;-551;0
10628;-550;0
10628;-558;0
10628;-579;0
10628;-570;0
10628;-599;0
10628;-575;0
10628;-536;0
10628;-545;0
10628;-573;0
10628;-563;0
10628;-578;0
10628;-585;0
10628;-549;0
10628;-536;0
10628;-540;0
10628;-554;0
10628;-587;0
10628;-550;0
10628;-552;0
10628;-537;0
10628;-538;0
10628;-524;0
10628;-554;0
10628;-554;0
10628;-565;0
10628;-504;0
10628;-505;0
10628;-506;0
10628;-508;0
10628;-506;0
10628;-497;0
10628;-476;0
10628;-467;0
10628;-425;0
10628;-431;0
10628;-471;0
10628;-466;0
10628;-454;0
10628;-470;0
10628;-443;0
10628;-464;0
10628;-464;0
10628;-506;0
10628;-510;0
10628;-486;0
10628;-466;0
10628;-494;0
10628;-502;0
10628;-560;0
10628;-600;0
10628;-647;0
10628;-672;0
10628;-740;0
10628;-755;0
10628;-863;0
10628;-897;0
10628;-918;0
10628;-876;0
10628;-876;0
10628;-866;0
10628;-865;0
10628;-817;0
10628;-794;0
10628;-609;0
10628;-498;0
10628;-589;0
10628;-460;0
10628;-373;0
10628;-302;0
10628;-175;0
10628;-239;0
10628;-245;0
10628;-243;0
10628;-278;0
10628;-348;0
10628;-368;0
10628;-367;0
10628;-381;0
10628;-378;0
10628;-398;0
10628;-446;0
10628;-542;0
10628;-534;0
10628;-514;0
10628;-464;0
10628;-422;0
10628;-539;0
10628;-528;0
10628;-552;0
10628;-526;0
10628;-511;0
10628;-492;0
10628;-483;0
10628;-490;0
10628;-523;0
10628;-517;0
10628;-476;0
10628;-549;0
10628;-504;0
10628;-482;0
10628;-508;0
10628;-448;0
10628;-546;0
10628;-490;0
10628;-499;0
10628;-489;0
10628;-503;0
10628;-524;0
10628;-498;0
10628;-506;0
10628;-452;0
10628;-425;0
10628;-433;0
10628;-541;0
10628;-478;0
10628;-434;0
10628;-435;0
10628;-337;0
10628;-432;0
10628;-428;0
10628;-460;0
10628;-479;0
10628;-469;0
10628;-435;0
10628;-457;0
10628;-492;0
10628;-493;0
10628;-512;0
10628;-527;0
10628;-571;0
10628;-512;0
10628;-466;0
10628;-508;0
10628;-448;0
10628;-529;0
10628;-499;0
10628;-506;0
10628;-486;0
10628;-500;0
10628;-514;0
10628;-556;0
10628;-547;0
10628;-526;0
10628;-533;0
10628;-528;0
10628;-627;0
10628;-597;0
10628;-572;0
10628;-581;0
10628;-478;0
11604;33365;0
11604;-537;0
11604;-508;0
11604;-550;0
11604;-539;0
11604;-563;0
11604;-542;0
11604;-557;0
11604;-521;0
11604;-504;0
11604;-527;0
11604;-545;0
11604;-545;0
11604;-545;0
11604;-516;0
11604;-497;0
11604;-506;0
11604;-501;0
11604;-512;0
11604;-537;0
11604;-482;0
11604;-482;0
11604;-460;0
11604;-495;0
11604;-491;0
11604;-512;0
11604;-500;0
11604;-504;0
11604;-474;0
11604;-476;0
11604;-493;0
11604;-533;0
11604;-510;0
11604;-516;0
11604;-529;0
11604;-541;0
11604;-591;0
11604;-655;0
11604;-715;0
11604;-788;0
11604;-805;0
11604;-812;0
11604;-869;0
11604;-899;0
11604;-874;0
11604;-888;0
11604;-881;0
11604;-850;0
11604;-756;0
11604;-716;0
11604;-668;0
11604;-631;0
11604;-567;0
11604;-481;0
11604;-387;0
11604;-298;0
11604;-274;0
11604;-294;0
11604;-316;0
11604;-319;0
11604;-313;0
11604;-343;0
11604;-363;0
11604;-404;0
11604;-403;0
11604;-422;0
11604;-430;0
11604;-446;0
11604;-429;0
11604;-500;0
11604;-505;0
11604;-513;0
11604;-514;0
11604;-530;0
11604;-503;0
11604;-511;0
11604;-527;0
11604;-521;0
11604;-536;0
11604;-501;0
11604;-459;0
11604;-489;0
11604;-476;0
11604;-500;0
11604;-485;0
11604;-494;0
11604;-469;0
11604;-454;0
11604;-470;0
11604;-516;0
11604;-503;0
11604;-508;0
11604;-479;0
11604;-473;0
11604;-463;0
11604;-475;0
11604;-483;0
11604;-508;0
11604;-456;0
11604;-437;0
11604;-411;0
11604;-431;0
11604;-431;0
11604;-441;0
11604;-422;0
11604;-421;0
11604;-424;0
11604;-385;0
11604;-435;0
11604;-479;0
11604;-463;0
11604;-476;0
11604;-458;0
11604;-467;0
11604;-469;0
11604;-500;0
11604;-503;0
11604;-530;0
11604;-470;0
11604;-467;0
11604;-484;0
11604;-500;0
11604;-489;0
11604;-511;0
11604;-494;0
11604;-488;0
11604;-474;0
11604;-498;0
11604;-509;0
11604;-546;0
11604;-542;0
11604;-518;0
11604;-530;0
11604;-509;0
11604;-527;0
11604;-546;0
11604;-576;0
11604;-549;0
11604;-517;0
11604;-521;0
11604;-515;0
11604;-542;0
11604;-535;0
11604;-541;0
11604;-516;0
11604;-501;0
11604;-460;0
11604;-510;0
11604;-509;0
11604;-517;0
11604;-485;0
11604;-487;0
11604;-453;0
11604;-478;0
11604;-462;0
11604;-490;0
11604;-493;0
11604;-465;0
11604;-419;0
11604;-438;0
11604;-457;0
11604;-453;0
11604;-464;0
11604;-470;0
11604;-432;0
11604;-432;0
11604;-416;0
11604;-467;0
11604;-464;0
11604;-476;0
11604;-450;0
11604;-464;0
11604;-440;0
11604;-460;0
11604;-482;0
11604;-513;0
11604;-487;0
11604;-454;0
11604;-446;0
11604;-451;0
11604;-456;0
11604;-490;0
11604;-468;0
11604;-475;0
11604;-440;0
11604;-436;0
11604;-457;0
11604;-501;0
11604;-484;0
11604;-494;0
11604;-472;0
11604;-486;0
11604;-471;0
11604;-509;0
11604;-506;0
11604;-541;0
11604;-488;0
11604;-494;0
11604;-485;0
11604;-510;0
11604;-505;0
11604;-525;0
11604;-532;0
11604;-501;0
11604;-490;0
11604;-505;0
11604;-523;0
11604;-553;0
11604;-546;0
11604;-520;0
11604;-519;0
11604;-523;0
11604;-507;0
11604;-545;0
11604;-546;0
11604;-546;0
11604;-491;0
11604;-503;0
11604;-494;0
11604;-508;0
11604;-525;0
11604;-519;0
11604;-508;0
11604;-502;0
11604;-458;0
11604;-488;0
11604;-530;0
11604;-522;0
11604;-508;0
11604;-508;0
11604;-489;0
11604;-500;0
11604;-524;0
11604;-524;0
11604;-549;0
11604;-519;0
11604;-476;0
11604;-509;0
11604;-497;0
11604;-524;0
11604;-510;0
11604;-525;0
11604;-492;0
11604;-491;0
11604;-469;0
11604;-535;0
11604;-534;0
11604;-541;0
11604;-510;0
11604;-512;0
11604;-522;0
11604;-502;0
11604;-530;0
11604;-564;0
11604;-532;0
11604;-505;0
11604;-497;0
11604;-520;0
11604;-514;0
11604;-539;0
11604;-524;0
11604;-525;0
11604;-516;0
11604;-478;0
11604;-507;0
11604;-554;0
11604;-538;0
11604;-536;0
11604;-539;0
11604;-521;0
11604;-521;0
11604;-553;0
11604;-546;0
11604;-579;0
11604;-555;0
11604;-515;0
11604;-530;0
11604;-558;0
11604;-549;0
11604;-570;0
11604;-549;0
11604;-540;0
11604;-525;0
11604;-529;0
11604;-549;0
11604;-584;0
11604;-559;0
11604;-561;0
11604;-537;0
11604;-552;0
11604;-533;0
11604;-574;0
11604;-574;0
11604;-585;0
11604;-526;0
11604;-528;0
11604;-523;0
11604;-559;0
11604;-538;0
11604;-550;0
11604;-535;0
11604;-533;0
11604;-490;0
11604;-525;0
11604;-540;0
11604;-553;0
11604;-528;0
11604;-529;0
11604;-506;0
11604;-523;0
11604;-515;0
11604;-537;0
11604;-565;0
11604;-539;0
11604;-492;0
11604;-510;0
11604;-508;0
11604;-533;0
11604;-513;0
11604;-521;0
11604;-501;0
11604;-497;0
11604;-463;0
11604;-523;0
11604;-523;0
11604;-532;0
11604;-501;0
11604;-501;0
11604;-508;0
11604;-492;0
11604;-522;0
11604;-554;0
11604;-536;0
11604;-507;0
11604;-498;0
11604;-492;0
11604;-510;0
11604;-528;0
11604;-508;0
11604;-516;0
11604;-511;0
11604;-467;0
11604;-500;0
11604;-528;0
11604;-534;0
11604;-519;0
11604;-513;0
11604;-493;0
11604;-496;0
11604;-517;0
11604;-509;0
11604;-547;0
11604;-500;0
11604;-483;0
11604;-469;0
11604;-499;0
11604;-499;0
11604;-527;0
11604;-508;0
11604;-510;0
11604;-492;0
11604;-493;0
11604;-512;0
11604;-558;0
11604;-530;0
11604;-532;0
11604;-531;0
11604;-541;0
11604;-525;0
11604;-562;0
11604;-567;0
11604;-589;0
11604;-526;0
11604;-529;0
11604;-529;0
11604;-550;0
11604;-535;0
11604;-556;0
11604;-530;0
11604;-528;0
11604;-489;0
11604;-506;0
11604;-541;0
11604;-558;0
11604;-517;0
11604;-524;0
11604;-493;0
11604;-507;0
11604;-510;0
11604;-546;0
11604;-559;0
11604;-538;0
11604;-498;0
11604;-512;0
11604;-517;0
11604;-528;0
11604;-537;0
11604;-539;0
11604;-508;0
11604;-498;0
11604;-496;0
12599;34343;0
12599;-529;0
12599;-561;0
12599;-556;0
12599;-539;0
12599;-524;0
12599;-518;0
12599;-537;0
12599;-525;0
12599;-567;0
12599;-575;0
12599;-547;0
12599;-522;0
12599;-540;0
12599;-531;0
12599;-559;0
12599;-537;0
12599;-547;0
12599;-509;0
12599;-497;0
12599;-461;0
12599;-515;0
12599;-514;0
12599;-513;0
12599;-479;0
12599;-478;0
12599;-453;0
12599;-462;0
12599;-487;0
12599;-491;0
12599;-493;0
12599;-471;0
12599;-434;0
12599;-456;0
12599;-477;0
12599;-461;0
12599;-464;0
12599;-474;0
12599;-432;0
12599;-425;0
12599;-438;0
12599;-492;0
12599;-476;0
12599;-476;0
12599;-443;0
12599;-453;0
12599;-447;0
12599;-453;0
12599;-463;0
12599;-496;0
12599;-445;0
12599;-434;0
12599;-446;0
12599;-446;0
12599;-462;0
12599;-482;0
12599;-455;0
12599;-455;0
12599;-417;0
12599;-401;0
12599;-440;0
12599;-455;0
12599;-416;0
12599;-403;0
12599;-393;0
12599;-366;0
12599;-371;0
12599;-391;0
12599;-389;0
12599;-413;0
12599;-350;0
12599;-341;0
12599;-360;0
12599;-384;0
12599;-379;0
12599;-382;0
12599;-388;0
12599;-350;0
12599;-342;0
12599;-357;0
12599;-378;0
12599;-386;0
12599;-381;0
12599;-391;0
12599;-368;0
12599;-392;0
12599;-370;0
12599;-400;0
12599;-424;0
12599;-378;0
12599;-341;0
12599;-352;0
12599;-340;0
12599;-371;0
12599;-353;0
12599;-345;0
12599;-341;0
12599;-332;0
12599;-287;0
12599;-338;0
12599;-345;0
12599;-363;0
12599;-332;0
12599;-343;0
12599;-318;0
12599;-344;0
12599;-346;0
12599;-390;0
12599;-379;0
12599;-361;0
12599;-331;0
12599;-372;0
12599;-373;0
12599;-394;0
12599;-399;0
12599;-404;0
12599;-379;0
12599;-384;0
12599;-367;0
12599;-414;0
12599;-430;0
12599;-425;0
12599;-384;0
12599;-389;0
12599;-364;0
12599;-381;0
12599;-370;0
12599;-407;0
12599;-362;0
12599;-341;0
12599;-341;0
12599;-336;0
12599;-343;0
12599;-369;0
12599;-342;0
12599;-340;0
12599;-326;0
12599;-293;0
12599;-324;0
12599;-357;0
12599;-340;0
12599;-338;0
12599;-345;0
12599;-326;0
12599;-338;0
12599;-353;0
12599;-344;0
12599;-371;0
12599;-301;0
12599;-283;0
12599;-291;0
12599;-309;0
12599;-289;0
12599;-293;0
12599;-293;0
12599;-248;0
12599;-231;0
12599;-238;0
12599;-250;0
12599;-287;0
12599;-255;0
12599;-251;0
12599;-252;0
12599;-254;0
12599;-247;0
12599;-282;0
12599;-280;0
12599;-272;0
12599;-225;0
12599;-233;0
12599;-238;0
12599;-243;0
12599;-253;0
12599;-246;0
12599;-221;0
12599;-207;0
12599;-163;0
12599;-198;0
12599;-191;0
12599;-178;0
12599;-148;0
12599;-133;0
12599;-93;0
12599;-92;0
12599;-76;0
12599;-101;0
12599;-88;0
12599;-50;0
12599;-6;0
12599;-30;0
12599;-52;0
12599;-36;0
12599;-45;0
12599;-50;0
12599;-18;0
12599;-17;0
12599;0;0
12599;-59;0
12599;-48;0
12599;-52;0
12599;-21;0
12599;-31;0
12599;-11;0
12599;-30;0
12599;-25;0
12599;-55;0
12599;-11;0
12599;12;0
12599;6;0
12599;3;0
12599;-9;0
12599;-4;0
12599;-5;0
12599;14;0
12599;34;0
12599;67;0
12599;42;0
12599;1;0
12599;32;0
12599;40;0
12599;77;0
12599;66;0
12599;81;0
12599;49;0
12599;55;0
12599;29;0
12599;63;0
12599;98;0
12599;71;0
12599;43;0
12599;48;0
12599;35;0
12599;15;0
12599;40;0
12599;50;0
12599;42;0
12599;9;0
12599;-29;0
12599;-18;0
12599;-22;0
12599;-22;0
12599;-42;0
12599;-25;0
12599;-67;0
12599;-107;0
12599;-88;0
12599;-73;0
12599;-78;0
12599;-83;0
12599;-124;0
12599;-152;0
12599;-144;0
12599;-153;0
12599;-136;0
12599;-131;0
12599;-154;0
12599;-203;0
12599;-195;0
12599;-173;0
12599;-177;0
12599;-150;0
12599;-168;0
12599;-165;0
12599;-204;0
12599;-209;0
12599;-192;0
12599;-154;0
12599;-180;0
12599;-223;0
12599;-223;0
12599;-239;0
12599;-250;0
12599;-213;0
12599;-220;0
12599;-208;0
12599;-270;0
12599;-280;0
12599;-295;0
12599;-271;0
12599;-280;0
12599;-290;0
12599;-287;0
12599;-317;0
12599;-352;0
12599;-331;0
12599;-310;0
12599;-282;0
12599;-327;0
12599;-326;0
12599;-363;0
12599;-344;0
12599;-365;0
12599;-368;0
12599;-337;0
12599;-381;0
12599;-422;0
12599;-443;0
12599;-419;0
12599;-425;0
12599;-424;0
12599;-436;0
12599;-469;0
12599;-480;0
12599;-521;0
12599;-508;0
12599;-474;0
12599;-491;0
12599;-530;0
12599;-527;0
12599;-567;0
12599;-557;0
12599;-565;0
12599;-528;0
12599;-545;0
12599;-574;0
12599;-603;0
12599;-617;0
12599;-590;0
12599;-604;0
12599;-625;0
12599;-616;0
12599;-651;0
12599;-667;0
12599;-682;0
12599;-623;0
12599;-631;0
12599;-627;0
12599;-659;0
12599;-678;0
12599;-655;0
12599;-661;0
12599;-625;0
12599;-605;0
12599;-637;0
12599;-650;0
12599;-658;0
12599;-626;0
12599;-621;0
12599;-589;0
12599;-588;0
12599;-589;0
12599;-586;0
12599;-602;0
12599;-572;0
12599;-526;0
12599;-554;0
12599;-546;0
12599;-573;0
12599;-561;0
12599;-580;0
12599;-548;0
12599;-537;0
12599;-505;0
12599;-578;0
12599;-584;0
12599;-602;0
12599;-585;0
12599;-599;0
12599;-636;0
12599;-660;0
12599;-724;0
12599;-769;0
12599;-782;0
12599;-770;0
12599;-723;0
12599;-717;0
12599;-708;0
12599;-738;0
12599;-692;0
12599;-661;0
12599;-562;0
12599;-486;0
12599;-428;0
12599;-443;0
12599;-371;0
12599;-282;0
12599;-206;0
12599;-171;0
12599;-174;0
12599;-183;0
12599;-241;0
12599;-302;0
12599;-296;0
12599;-297;0
12599;-301;0
12599;-350;0
12599;-362;0
12599;-399;0
12599;-432;0
12599;-431;0
12599;-432;0
12599;-449;0
12599;-481;0
12599;-533;0
12599;-519;0
12599;-524;0
12599;-523;0
12599;-530;0
12599;-517;0
12599;-548;0
12599;-553;0
13598;35303;0
13598;-162;0
13598;-127;0
13598;-109;0
13598;-117;0
13598;-135;0
13598;-174;0
13598;-223;0
13598;-85;0
13598;-16;0
13598;-58;0
13598;-103;0
13598;-114;0
13598;-151;0
13598;-130;0
13598;-139;0
13598;-130;0
13598;-81;0
13598;-81;0
13598;-81;0
13598;-81;0
13598;-81;0
13598;-81;0
13598;-81;0
13598;-81;0
13598;-81;0
13598;-81;0
13598;-81;0
13598;-81;0
13598;-81;0
13598;-13;0
13598;-96;0
13598;-92;0
13598;-94;0
13598;-10;0
13598;4;0
13598;-13;0
13598;-33;0
13598;-17;0
13598;-38;0
13598;-8;0
13598;1;0
13598;-52;0
13598;-30;0
13598;-40;0
13598;-42;0
13598;39;0
13598;-2;0
13598;15;0
13598;34;0
13598;32;0
13598;7;0
13598;5;0
13598;42;0
13598;90;0
13598;85;0
13598;91;0
13598;82;0
13598;-8;0
13598;69;0
13598;87;0
13598;106;0
13598;217;0
13598;82;0
13598;73;0
13598;82;0
13598;97;0
13598;96;0
13598;113;0
13598;86;0
13598;53;0
13598;42;0
13598;29;0
13598;64;0
13598;33;0
13598;49;0
13598;23;0
13598;16;0
13598;70;0
13598;-26;0
13598;-2;0
13598;4;0
13598;-35;0
13598;-62;0
13598;-95;0
13598;-95;0
13598;-72;0
13598;-82;0
13598;-96;0
13598;-103;0
13598;-205;0
13598;-178;0
13598;-142;0
13598;-121;0
13598;-38;0
13598;-152;0
13598;-161;0
13598;-191;0
13598;-290;0
13598;-281;0
13598;-225;0
13598;-217;0
13598;-249;0
13598;-286;0
13598;-249;0
13598;-230;0
13598;-210;0
13598;-175;0
13598;-174;0
13598;-198;0
13598;-206;0
13598;-224;0
13598;-177;0
13598;-139;0
13598;-161;0
13598;-187;0
13598;-176;0
13598;-212;0
13598;-224;0
13598;-183;0
13598;-178;0
13598;-207;0
13598;-249;0
13598;-292;0
13598;-258;0
13598;-275;0
13598;-247;0
13598;-276;0
13598;-277;0
13598;-318;0
13598;-356;0
13598;-328;0
13598;-290;0
13598;-308;0
13598;-322;0
13598;-351;0
13598;-378;0
13598;-372;0
13598;-367;0
13598;-360;0
13598;-336;0
13598;-416;0
13598;-432;0
13598;-444;0
13598;-411;0
13598;-419;0
13598;-399;0
13598;-425;0
13598;-422;0
13598;-465;0
13598;-471;0
13598;-440;0
13598;-401;0
13598;-446;0
13598;-450;0
13598;-482;0
13598;-483;0
13598;-520;0
13598;-490;0
13598;-482;0
13598;-514;0
13598;-550;0
13598;-586;0
13598;-583;0
13598;-557;0
13598;-578;0
13598;-563;0
13598;-594;0
13598;-632;0
13598;-671;0
13598;-643;0
13598;-632;0
13598;-621;0
13598;-652;0
13598;-668;0
13598;-701;0
13598;-680;0
13598;-696;0
13598;-677;0
13598;-670;0
13598;-717;0
13598;-759;0
13598;-747;0
13598;-755;0
13598;-724;0
13598;-727;0
13598;-712;0
13598;-742;0
13598;-739;0
13598;-766;0
13598;-690;0
13598;-673;0
13598;-684;0
13598;-712;0
13598;-708;0
13598;-741;0
13598;-724;0
13598;-737;0
13598;-696;0
13598;-728;0
13598;-766;0
13598;-807;0
13598;-779;0
13598;-780;0
13598;-779;0
13598;-790;0
13598;-798;0
13598;-848;0
13598;-890;0
13598;-856;0
13598;-845;0
13598;-814;0
13598;-857;0
13598;-883;0
13598;-879;0
13598;-888;0
13598;-877;0
13598;-871;0
13598;-822;0
13598;-881;0
13598;-902;0
13598;-908;0
13598;-878;0
13598;-871;0
13598;-838;0
13598;-851;0
13598;-846;0
13598;-870;0
13598;-889;0
13598;-841;0
13598;-787;0
13598;-805;0
13598;-827;0
13598;-817;0
13598;-834;0
13598;-837;0
13598;-787;0
13598;-775;0
13598;-759;0
13598;-826;0
13598;-822;0
13598;-822;0
13598;-780;0
13598;-770;0
13598;-778;0
13598;-756;0
13598;-788;0
13598;-818;0
13598;-775;0
13598;-749;0
13598;-715;0
13598;-752;0
13598;-743;0
13598;-767;0
13598;-750;0
13598;-744;0
13598;-724;0
13598;-682;0
13598;-713;0
13598;-758;0
13598;-732;0
13598;-724;0
13598;-689;0
13598;-691;0
13598;-672;0
13598;-680;0
13598;-684;0
13598;-720;0
13598;-677;0
13598;-625;0
13598;-635;0
13598;-660;0
13598;-645;0
13598;-667;0
13598;-653;0
13598;-655;0
13598;-611;0
13598;-614;0
13598;-646;0
13598;-680;0
13598;-637;0
13598;-628;0
13598;-599;0
13598;-607;0
13598;-596;0
13598;-625;0
13598;-652;0
13598;-618;0
13598;-573;0
13598;-567;0
13598;-571;0
13598;-590;0
13598;-585;0
13598;-585;0
13598;-576;0
13598;-557;0
13598;-494;0
13598;-529;0
13598;-558;0
13598;-553;0
13598;-522;0
13598;-506;0
13598;-468;0
13598;-474;0
13598;-466;0
13598;-495;0
13598;-491;0
13598;-451;0
13598;-402;0
13598;-423;0
13598;-419;0
13598;-428;0
13598;-437;0
13598;-442;0
13598;-394;0
13598;-386;0
13598;-343;0
13598;-400;0
13598;-426;0
13598;-406;0
13598;-368;0
13598;-374;0
13598;-345;0
13598;-361;0
13598;-354;0
13598;-396;0
13598;-364;0
13598;-318;0
13598;-307;0
13598;-298;0
13598;-323;0
13598;-341;0
13598;-319;0
13598;-311;0
13598;-286;0
13598;-265;0
13598;-267;0
13598;-330;0
13598;-310;0
13598;-296;0
13598;-289;0
13598;-268;0
13598;-261;0
13598;-293;0
13598;-304;0
13598;-323;0
13598;-289;0
13598;-247;0
13598;-250;0
13598;-281;0
13598;-277;0
13598;-287;0
13598;-294;0
13598;-259;0
13598;-238;0
13598;-236;0
13598;-256;0
13598;-307;0
13598;-271;0
13598;-270;0
13598;-241;0
13598;-247;0
13598;-228;0
13598;-270;0
13598;-276;0
13598;-280;0
13598;-232;0
13598;-220;0
13598;-221;0
13598;-255;0
13598;-243;0
13598;-272;0
13598;-239;0
13598;-240;0
13598;-200;0
13598;-242;0
13598;-260;0
13598;-276;0
13598;-262;0
13598;-260;0
13598;-226;0
13598;-236;0
13598;-251;0
13598;-269;0
13598;-288;0
13598;-265;0
13598;-213;0
13598;-220;0
13598;-244;0
13598;-251;0
13598;-259;0
13598;-265;0
13598;-223;0
13598;-220;0
13598;-174;0
13598;-237;0
13598;-241;0
13598;-253;0
13598;-214;0
13598;-219;0
13598;-203;0
14599;36287;0
14599;-503;0
14599;-482;0
14599;-509;0
14599;-508;0
14599;-539;0
14599;-525;0
14599;-485;0
14599;-440;0
14599;-467;0
14599;-486;0
14599;-480;0
14599;-475;0
14599;-474;0
14599;-426;0
14599;-413;0
14599;-409;0
14599;-456;0
14599;-468;0
14599;-450;0
14599;-413;0
14599;-428;0
14599;-410;0
14599;-428;0
14599;-449;0
14599;-480;0
14599;-423;0
14599;-392;0
14599;-401;0
14599;-400;0
14599;-412;0
14599;-430;0
14599;-399;0
14599;-408;0
14599;-365;0
14599;-345;0
14599;-402;0
14599;-444;0
14599;-409;0
14599;-398;0
14599;-403;0
14599;-383;0
14599;-395;0
14599;-424;0
14599;-436;0
14599;-443;0
14599;-415;0
14599;-367;0
14599;-396;0
14599;-418;0
14599;-411;0
14599;-433;0
14599;-402;0
14599;-391;0
14599;-366;0
14599;-392;0
14599;-417;0
14599;-445;0
14599;-408;0
14599;-416;0
14599;-394;0
14599;-402;0
14599;-389;0
14599;-434;0
14599;-447;0
14599;-417;0
14599;-385;0
14599;-383;0
14599;-396;0
14599;-402;0
14599;-420;0
14599;-410;0
14599;-400;0
14599;-384;0
14599;-341;0
14599;-404;0
14599;-413;0
14599;-420;0
14599;-383;0
14599;-390;0
14599;-378;0
14599;-406;0
14599;-408;0
14599;-438;0
14599;-444;0
14599;-414;0
14599;-374;0
14599;-412;0
14599;-408;0
14599;-437;0
14599;-452;0
14599;-458;0
14599;-419;0
14599;-404;0
14599;-434;0
14599;-465;0
14599;-500;0
14599;-495;0
14599;-477;0
14599;-493;0
14599;-479;0
14599;-517;0
14599;-522;0
14599;-576;0
14599;-525;0
14599;-502;0
14599;-491;0
14599;-508;0
14599;-522;0
14599;-528;0
14599;-543;0
14599;-521;0
14599;-511;0
14599;-476;0
14599;-526;0
14599;-563;0
14599;-535;0
14599;-536;0
14599;-508;0
14599;-513;0
14599;-511;0
14599;-540;0
14599;-543;0
14599;-581;0
14599;-504;0
14599;-490;0
14599;-485;0
14599;-519;0
14599;-510;0
14599;-510;0
14599;-506;0
14599;-461;0
14599;-437;0
14599;-448;0
14599;-470;0
14599;-507;0
14599;-473;0
14599;-482;0
14599;-477;0
14599;-495;0
14599;-488;0
14599;-513;0
14599;-540;0
14599;-517;0
14599;-463;0
14599;-472;0
14599;-479;0
14599;-500;0
14599;-513;0
14599;-507;0
14599;-497;0
14599;-497;0
14599;-453;0
14599;-502;0
14599;-543;0
14599;-527;0
14599;-514;0
14599;-519;0
14599;-494;0
14599;-525;0
14599;-529;0
14599;-567;0
14599;-593;0
14599;-555;0
14599;-519;0
14599;-561;0
14599;-563;0
14599;-583;0
14599;-590;0
14599;-590;0
14599;-550;0
14599;-528;0
14599;-535;0
14599;-554;0
14599;-578;0
14599;-560;0
14599;-523;0
14599;-535;0
14599;-512;0
14599;-530;0
14599;-557;0
14599;-583;0
14599;-545;0
14599;-513;0
14599;-514;0
14599;-509;0
14599;-527;0
14599;-548;0
14599;-523;0
14599;-532;0
14599;-519;0
14599;-493;0
14599;-523;0
14599;-573;0
14599;-573;0
14599;-553;0
14599;-546;0
14599;-531;0
14599;-547;0
14599;-593;0
14599;-608;0
14599;-649;0
14599;-636;0
14599;-622;0
14599;-697;0
14599;-771;0
14599;-795;0
14599;-864;0
14599;-885;0
14599;-886;0
14599;-834;0
14599;-826;0
14599;-864;0
14599;-891;0
14599;-798;0
14599;-734;0
14599;-636;0
14599;-581;0
14599;-525;0
14599;-493;0
14599;-451;0
14599;-338;0
14599;-274;0
14599;-258;0
14599;-266;0
14599;-314;0
14599;-331;0
14599;-376;0
14599;-363;0
14599;-365;0
14599;-340;0
14599;-379;0
14599;-434;0
14599;-453;0
14599;-445;0
14599;-474;0
14599;-467;0
14599;-499;0
14599;-526;0
14599;-540;0
14599;-564;0
14599;-543;0
14599;-506;0
14599;-534;0
14599;-522;0
14599;-531;0
14599;-507;0
14599;-508;0
14599;-468;0
14599;-452;0
14599;-416;0
14599;-468;0
14599;-475;0
14599;-480;0
14599;-453;0
14599;-462;0
14599;-437;0
14599;-450;0
14599;-441;0
14599;-487;0
14599;-453;0
14599;-412;0
14599;-397;0
14599;-398;0
14599;-403;0
14599;-415;0
14599;-380;0
14599;-372;0
14599;-350;0
14599;-314;0
14599;-314;0
14599;-314;0
14599;-314;0
14599;-314;0
14599;-314;0
14599;-314;0
14599;-314;0
14599;-314;0
14599;-314;0
14599;-314;0
14599;-314;0
14599;-314;0
14599;-333;0
14599;-337;0
14599;-374;0
14599;-383;0
14599;-359;0
14599;-314;0
14599;-324;0
14599;-356;0
14599;-340;0
14599;-354;0
14599;-363;0
14599;-321;0
14599;-305;0
14599;-305;0
14599;-337;0
14599;-373;0
14599;-384;0
14599;-370;0
14599;-388;0
14599;-409;0
14599;-407;0
14599;-463;0
14599;-485;0
14599;-511;0
14599;-461;0
14599;-465;0
14599;-481;0
14599;-513;0
14599;-529;0
14599;-519;0
14599;-512;0
14599;-504;0
14599;-453;0
14599;-483;0
14599;-531;0
14599;-523;0
14599;-525;0
14599;-487;0
14599;-494;0
14599;-487;0
14599;-496;0
14599;-509;0
14599;-536;0
14599;-517;0
14599;-481;0
14599;-472;0
14599;-496;0
14599;-498;0
14599;-498;0
14599;-503;0
14599;-466;0
14599;-440;0
14599;-436;0
14599;-469;0
14599;-498;0
14599;-505;0
14599;-468;0
14599;-475;0
14599;-480;0
14599;-468;0
14599;-492;0
14599;-527;0
14599;-509;0
14599;-482;0
14599;-447;0
14599;-479;0
14599;-477;0
14599;-497;0
14599;-480;0
14599;-483;0
14599;-464;0
14599;-422;0
14599;-442;0
14599;-495;0
14599;-485;0
14599;-478;0
14599;-482;0
14599;-460;0
14599;-475;0
14599;-463;0
14599;-505;0
14599;-547;0
14599;-502;0
14599;-476;0
14599;-477;0
14599;-502;0
14599;-509;0
14599;-518;0
14599;-525;0
14599;-495;0
14599;-476;0
14599;-471;0
14599;-505;0
14599;-542;0
14599;-545;0
14599;-514;0
14599;-515;0
14599;-524;0
14599;-514;0
14599;-552;0
14599;-556;0
14599;-576;0
14599;-526;0
14599;-520;0
14599;-511;0
14599;-533;0
14599;-519;0
14599;-539;0
14599;-505;0
14599;-497;0
14599;-449;0
14599;-480;0
14599;-505;0
14599;-538;0
14599;-502;0
14599;-511;0
14599;-486;0
14599;-494;0
14599;-506;0
15573;37301;0
15573;-371;0
15573;-353;0
15573;-377;0
15573;-376;0
15573;-413;0
15573;-424;0
15573;-419;0
15573;-389;0
15573;-386;0
15573;-391;0
15573;-403;0
15573;-438;0
15573;-418;0
15573;-374;0
15573;-386;0
15573;-413;0
15573;-400;0
15573;-434;0
15573;-487;0
15573;-451;0
15573;-436;0
15573;-435;0
15573;-469;0
15573;-464;0
15573;-477;0
15573;-490;0
15573;-473;0
15573;-457;0
15573;-438;0
15573;-492;0
15573;-524;0
15573;-491;0
15573;-512;0
15573;-494;0
15573;-488;0
15573;-520;0
15573;-566;0
15573;-581;0
15573;-613;0
15573;-579;0
15573;-586;0
15573;-607;0
15573;-623;0
15573;-624;0
15573;-649;0
15573;-635;0
15573;-631;0
15573;-595;0
15573;-626;0
15573;-646;0
15573;-664;0
15573;-673;0
15573;-653;0
15573;-651;0
15573;-662;0
15573;-668;0
15573;-703;0
15573;-736;0
15573;-692;0
15573;-699;0
15573;-713;0
15573;-734;0
15573;-756;0
15573;-774;0
15573;-782;0
15573;-767;0
15573;-756;0
15573;-723;0
15573;-799;0
15573;-821;0
15573;-811;0
15573;-808;0
15573;-823;0
15573;-813;0
15573;-832;0
15573;-829;0
15573;-887;0
15573;-893;0
15573;-849;0
15573;-812;0
15573;-854;0
15573;-896;0
15573;-884;0
15573;-889;0
15573;-900;0
15573;-861;0
15573;-857;0
15573;-835;0
15573;-873;0
15573;-878;0
15573;-864;0
15573;-828;0
15573;-832;0
15573;-809;0
15573;-826;0
15573;-818;0
15573;-852;0
15573;-819;0
15573;-789;0
15573;-778;0
15573;-802;0
15573;-793;0
15573;-822;0
15573;-793;0
15573;-786;0
15573;-751;0
15573;-725;0
15573;-739;0
15573;-771;0
15573;-740;0
15573;-734;0
15573;-704;0
15573;-699;0
15573;-703;0
15573;-732;0
15573;-731;0
15573;-762;0
15573;-699;0
15573;-681;0
15573;-688;0
15573;-716;0
15573;-713;0
15573;-738;0
15573;-746;0
15573;-716;0
15573;-700;0
15573;-710;0
15573;-742;0
15573;-786;0
15573;-779;0
15573;-745;0
15573;-749;0
15573;-766;0
15573;-764;0
15573;-799;0
15573;-850;0
15573;-831;0
15573;-803;0
15573;-822;0
15573;-826;0
15573;-859;0
15573;-897;0
15573;-900;0
15573;-927;0
15573;-897;0
15573;-896;0
15573;-939;0
15573;-996;0
15573;-1003;0
15573;-996;0
15573;-1026;0
15573;-1017;0
15573;-1040;0
15573;-1085;0
15573;-1115;0
15573;-1154;0
15573;-1140;0
15573;-1104;0
15573;-1135;0
15573;-1160;0
15573;-1153;0
15573;-1173;0
15573;-1198;0
15573;-1172;0
15573;-1162;0
15573;-1176;0
15573;-1216;0
15573;-1258;0
15573;-1257;0
15573;-1238;0
15573;-1256;0
15573;-1270;0
15573;-1257;0
15573;-1308;0
15573;-1376;0
15573;-1352;0
15573;-1333;0
15573;-1328;0
15573;-1392;0
15573;-1394;0
15573;-1434;0
15573;-1442;0
15573;-1450;0
15573;-1422;0
15573;-1416;0
15573;-1446;0
15573;-1512;0
15573;-1494;0
15573;-1504;0
15573;-1513;0
15573;-1511;0
15573;-1500;0
15573;-1525;0
15573;-1544;0
15573;-1585;0
15573;-1532;0
15573;-1518;0
15573;-1511;0
15573;-1529;0
15573;-1501;0
15573;-1531;0
15573;-1540;0
15573;-1486;0
15573;-1468;0
15573;-1472;0
15573;-1497;0
15573;-1521;0
15573;-1481;0
15573;-1482;0
15573;-1462;0
15573;-1434;0
15573;-1402;0
15573;-1443;0
15573;-1416;0
15573;-1403;0
15573;-1337;0
15573;-1330;0
15573;-1297;0
15573;-1289;0
15573;-1310;0
15573;-1271;0
15573;-1240;0
15573;-1211;0
15573;-1165;0
15573;-1192;0
15573;-1189;0
15573;-1198;0
15573;-1154;0
15573;-1133;0
15573;-1081;0
15573;-1090;0
15573;-1076;0
15573;-1066;0
15573;-1064;0
15573;-1040;0
15573;-981;0
15573;-969;0
15573;-965;0
15573;-996;0
15573;-954;0
15573;-937;0
15573;-903;0
15573;-896;0
15573;-831;0
15573;-874;0
15573;-875;0
15573;-854;0
15573;-790;0
15573;-789;0
15573;-762;0
15573;-771;0
15573;-750;0
15573;-787;0
15573;-770;0
15573;-715;0
15573;-688;0
15573;-698;0
15573;-713;0
15573;-708;0
15573;-697;0
15573;-706;0
15573;-647;0
15573;-603;0
15573;-630;0
15573;-686;0
15573;-644;0
15573;-610;0
15573;-615;0
15573;-590;0
15573;-563;0
15573;-547;0
15573;-589;0
15573;-605;0
15573;-556;0
15573;-510;0
15573;-509;0
15573;-522;0
15573;-508;0
15573;-536;0
15573;-542;0
15573;-489;0
15573;-467;0
15573;-469;0
15573;-479;0
15573;-512;0
15573;-485;0
15573;-468;0
15573;-444;0
15573;-453;0
15573;-455;0
15573;-484;0
15573;-474;0
15573;-500;0
15573;-442;0
15573;-422;0
15573;-418;0
15573;-464;0
15573;-455;0
15573;-447;0
15573;-450;0
15573;-446;0
15573;-384;0
15573;-406;0
15573;-449;0
15573;-466;0
15573;-402;0
15573;-408;0
15573;-379;0
15573;-377;0
15573;-391;0
15573;-421;0
15573;-421;0
15573;-403;0
15573;-379;0
15573;-375;0
15573;-385;0
15573;-391;0
15573;-409;0
15573;-413;0
15573;-382;0
15573;-382;0
15573;-368;0
15573;-380;0
15573;-413;0
15573;-421;0
15573;-372;0
15573;-372;0
15573;-404;0
15573;-380;0
15573;-395;0
15573;-428;0
15573;-415;0
15573;-368;0
15573;-336;0
15573;-389;0
15573;-372;0
15573;-385;0
15573;-391;0
15573;-402;0
15573;-373;0
15573;-336;0
15573;-364;0
15573;-415;0
15573;-402;0
15573;-423;0
15573;-393;0
15573;-365;0
15573;-373;0
15573;-416;0
15573;-411;0
15573;-438;0
15573;-408;0
15573;-372;0
15573;-328;0
15573;-369;0
15573;-380;0
15573;-379;0
15573;-380;0
15573;-376;0
15573;-345;0
15573;-323;0
15573;-346;0
15573;-403;0
15573;-389;0
15573;-339;0
15573;-344;0
15573;-343;0
15573;-304;0
15573;-336;0
15573;-354;0
15573;-357;0
15573;-300;0
15573;-299;0
15573;-291;0
15573;-310;0
15573;-305;0
15573;-347;0
15573;-314;0
15573;-295;0
15573;-263;0
15573;-286;0
15573;-294;0
15573;-331;0
15573;-328;0
15573;-309;0
15573;-267;0
15573;-293;0
15573;-295;0
15573;-325;0
15573;-341;0
15573;-351;0
15573;-293;0
15573;-293;0
15573;-307;0
15573;-344;0
15573;-339;0
15573;-348;0
15573;-338;0
15573;-307;0
15573;-275;0
16632;38291;0
16632;-522;0
16632;-470;0
16632;-493;0
16632;-506;0
16632;-541;0
16632;-540;0
16632;-492;0
16632;-455;0
16632;-494;0
16632;-479;0
16632;-485;0
16632;-485;0
16632;-496;0
16632;-466;0
16632;-434;0
16632;-402;0
16632;-455;0
16632;-459;0
16632;-459;0
16632;-411;0
16632;-411;0
16632;-387;0
16632;-419;0
16632;-422;0
16632;-442;0
16632;-395;0
16632;-370;0
16632;-382;0
16632;-385;0
16632;-370;0
16632;-366;0
16632;-359;0
16632;-346;0
16632;-323;0
16632;-279;0
16632;-290;0
16632;-333;0
16632;-311;0
16632;-310;0
16632;-278;0
16632;-264;0
16632;-274;0
16632;-302;0
16632;-311;0
16632;-336;0
16632;-297;0
16632;-260;0
16632;-290;0
16632;-326;0
16632;-309;0
16632;-353;0
16632;-371;0
16632;-422;0
16632;-414;0
16632;-465;0
16632;-542;0
16632;-618;0
16632;-636;0
16632;-672;0
16632;-646;0
16632;-621;0
16632;-614;0
16632;-657;0
16632;-642;0
16632;-594;0
16632;-495;0
16632;-437;0
16632;-390;0
16632;-364;0
16632;-317;0
16632;-201;0
16632;-114;0
16632;-62;0
16632;-43;0
16632;-83;0
16632;-130;0
16632;-143;0
16632;-142;0
16632;-154;0
16632;-121;0
16632;-136;0
16632;-140;0
16632;-180;0
16632;-225;0
16632;-209;0
16632;-164;0
16632;-189;0
16632;-183;0
16632;-218;0
16632;-221;0
16632;-227;0
16632;-176;0
16632;-167;0
16632;-128;0
16632;-179;0
16632;-161;0
16632;-152;0
16632;-126;0
16632;-141;0
16632;-112;0
16632;-125;0
16632;-121;0
16632;-174;0
16632;-158;0
16632;-121;0
16632;-110;0
16632;-116;0
16632;-141;0
16632;-171;0
16632;-162;0
16632;-162;0
16632;-140;0
16632;-115;0
16632;-142;0
16632;-196;0
16632;-176;0
16632;-163;0
16632;-171;0
16632;-163;0
16632;-163;0
16632;-183;0
16632;-190;0
16632;-241;0
16632;-207;0
16632;-198;0
16632;-205;0
16632;-238;0
16632;-245;0
16632;-282;0
16632;-318;0
16632;-281;0
16632;-271;0
16632;-282;0
16632;-320;0
16632;-367;0
16632;-334;0
16632;-330;0
16632;-316;0
16632;-360;0
16632;-362;0
16632;-392;0
16632;-400;0
16632;-458;0
16632;-458;0
16632;-458;0
16632;-458;0
16632;-458;0
16632;-458;0
16632;-458;0
16632;-458;0
16632;-458;0
16632;-458;0
16632;-458;0
16632;-458;0
16632;-458;0
16632;-472;0
16632;-435;0
16632;-419;0
16632;-447;0
16632;-511;0
16632;-514;0
16632;-486;0
16632;-475;0
16632;-464;0
16632;-491;0
16632;-496;0
16632;-516;0
16632;-523;0
16632;-510;0
16632;-479;0
16632;-501;0
16632;-524;0
16632;-521;0
16632;-532;0
16632;-554;0
16632;-526;0
16632;-510;0
16632;-471;0
16632;-533;0
16632;-561;0
16632;-562;0
16632;-528;0
16632;-531;0
16632;-507;0
16632;-539;0
16632;-550;0
16632;-608;0
16632;-598;0
16632;-583;0
16632;-559;0
16632;-605;0
16632;-609;0
16632;-639;0
16632;-625;0
16632;-644;0
16632;-603;0
16632;-587;0
16632;-581;0
16632;-643;0
16632;-636;0
16632;-633;0
16632;-613;0
16632;-591;0
16632;-587;0
16632;-603;0
16632;-642;0
16632;-647;0
16632;-622;0
16632;-594;0
16632;-602;0
16632;-627;0
16632;-609;0
16632;-633;0
16632;-613;0
16632;-631;0
16632;-588;0
16632;-577;0
16632;-607;0
16632;-660;0
16632;-635;0
16632;-631;0
16632;-586;0
16632;-594;0
16632;-592;0
16632;-632;0
16632;-644;0
16632;-671;0
16632;-608;0
16632;-620;0
16632;-623;0
16632;-644;0
16632;-629;0
16632;-647;0
16632;-636;0
16632;-641;0
16632;-577;0
16632;-597;0
16632;-615;0
16632;-642;0
16632;-598;0
16632;-590;0
16632;-556;0
16632;-571;0
16632;-589;0
16632;-598;0
16632;-596;0
16632;-563;0
16632;-545;0
16632;-554;0
16632;-570;0
16632;-564;0
16632;-583;0
16632;-607;0
16632;-565;0
16632;-554;0
16632;-501;0
16632;-543;0
16632;-574;0
16632;-569;0
16632;-509;0
16632;-511;0
16632;-491;0
16632;-501;0
16632;-503;0
16632;-516;0
16632;-523;0
16632;-497;0
16632;-458;0
16632;-474;0
16632;-476;0
16632;-510;0
16632;-508;0
16632;-501;0
16632;-445;0
16632;-429;0
16632;-446;0
16632;-502;0
16632;-473;0
16632;-456;0
16632;-457;0
16632;-446;0
16632;-458;0
16632;-470;0
16632;-464;0
16632;-517;0
16632;-500;0
16632;-445;0
16632;-447;0
16632;-464;0
16632;-484;0
16632;-515;0
16632;-486;0
16632;-480;0
16632;-462;0
16632;-457;0
16632;-479;0
16632;-514;0
16632;-499;0
16632;-490;0
16632;-489;0
16632;-483;0
16632;-455;0
16632;-507;0
16632;-513;0
16632;-511;0
16632;-511;0
16632;-511;0
16632;-511;0
16632;-511;0
16632;-511;0
16632;-511;0
16632;-511;0
16632;-511;0
16632;-511;0
16632;-511;0
16632;-511;0
16632;-511;0
16632;-498;0
16632;-503;0
16632;-465;0
16632;-470;0
16632;-470;0
16632;-510;0
16632;-512;0
16632;-507;0
16632;-462;0
16632;-466;0
16632;-479;0
16632;-520;0
16632;-516;0
16632;-515;0
16632;-467;0
16632;-480;0
16632;-496;0
16632;-503;0
16632;-505;0
16632;-524;0
16632;-502;0
16632;-466;0
16632;-446;0
16632;-467;0
16632;-497;0
16632;-512;0
16632;-467;0
16632;-460;0
16632;-453;0
16632;-467;0
16632;-455;0
16632;-482;0
16632;-484;0
16632;-462;0
16632;-455;0
16632;-433;0
16632;-459;0
16632;-503;0
16632;-493;0
16632;-485;0
16632;-467;0
16632;-435;0
16632;-442;0
16632;-490;0
16632;-472;0
16632;-475;0
16632;-452;0
16632;-466;0
16632;-429;0
16632;-456;0
16632;-471;0
16632;-509;0
16632;-497;0
16632;-457;0
16632;-445;0
16632;-504;0
16632;-501;0
16632;-496;0
16632;-504;0
16632;-508;0
16632;-483;0
16632;-443;0
16632;-467;0
16632;-507;0
16632;-526;0
16632;-484;0
16632;-455;0
16632;-486;0
16632;-466;0
16632;-491;0
16632;-500;0
16632;-527;0
16632;-480;0
16632;-480;0
16632;-463;0
16632;-489;0
16632;-516;0
16632;-510;0
16632;-501;0
16632;-485;0
16632;-448;0
16632;-452;0
16632;-516;0
17626;39251;0
17626;-792;0
17626;-758;0
17626;-757;0
17626;-738;0
17626;-688;0
17626;-709;0
17626;-752;0
17626;-739;0
17626;-724;0
17626;-676;0
17626;-671;0
17626;-663;0
17626;-701;0
17626;-693;0
17626;-698;0
17626;-664;0
17626;-622;0
17626;-653;0
17626;-689;0
17626;-674;0
17626;-686;0
17626;-654;0
17626;-662;0
17626;-621;0
17626;-624;0
17626;-644;0
17626;-668;0
17626;-675;0
17626;-649;0
17626;-648;0
17626;-647;0
17626;-642;0
17626;-664;0
17626;-676;0
17626;-664;0
17626;-596;0
17626;-599;0
17626;-607;0
17626;-644;0
17626;-644;0
17626;-647;0
17626;-626;0
17626;-621;0
17626;-591;0
17626;-610;0
17626;-644;0
17626;-633;0
17626;-617;0
17626;-624;0
17626;-596;0
17626;-603;0
17626;-597;0
17626;-626;0
17626;-645;0
17626;-604;0
17626;-556;0
17626;-566;0
17626;-582;0
17626;-567;0
17626;-584;0
17626;-591;0
17626;-540;0
17626;-513;0
17626;-506;0
17626;-528;0
17626;-555;0
17626;-547;0
17626;-504;0
17626;-514;0
17626;-494;0
17626;-507;0
17626;-520;0
17626;-548;0
17626;-520;0
17626;-504;0
17626;-471;0
17626;-494;0
17626;-471;0
17626;-495;0
17626;-472;0
17626;-484;0
17626;-433;0
17626;-408;0
17626;-429;0
17626;-471;0
17626;-460;0
17626;-434;0
17626;-424;0
17626;-393;0
17626;-390;0
17626;-411;0
17626;-409;0
17626;-422;0
17626;-391;0
17626;-340;0
17626;-350;0
17626;-378;0
17626;-354;0
17626;-377;0
17626;-359;0
17626;-360;0
17626;-339;0
17626;-338;0
17626;-367;0
17626;-410;0
17626;-414;0
17626;-385;0
17626;-394;0
17626;-401;0
17626;-392;0
17626;-439;0
17626;-445;0
17626;-462;0
17626;-407;0
17626;-412;0
17626;-412;0
17626;-436;0
17626;-449;0
17626;-434;0
17626;-446;0
17626;-405;0
17626;-394;0
17626;-420;0
17626;-442;0
17626;-451;0
17626;-429;0
17626;-434;0
17626;-411;0
17626;-424;0
17626;-441;0
17626;-447;0
17626;-472;0
17626;-457;0
17626;-403;0
17626;-419;0
17626;-452;0
17626;-441;0
17626;-464;0
17626;-474;0
17626;-449;0
17626;-448;0
17626;-418;0
17626;-488;0
17626;-501;0
17626;-515;0
17626;-482;0
17626;-482;0
17626;-495;0
17626;-480;0
17626;-506;0
17626;-547;0
17626;-534;0
17626;-502;0
17626;-491;0
17626;-486;0
17626;-509;0
17626;-538;0
17626;-520;0
17626;-522;0
17626;-526;0
17626;-488;0
17626;-503;0
17626;-557;0
17626;-556;0
17626;-555;0
17626;-532;0
17626;-524;0
17626;-517;0
17626;-528;0
17626;-536;0
17626;-581;0
17626;-538;0
17626;-518;0
17626;-509;0
17626;-536;0
17626;-531;0
17626;-555;0
17626;-542;0
17626;-536;0
17626;-516;0
17626;-505;0
17626;-527;0
17626;-564;0
17626;-539;0
17626;-542;0
17626;-515;0
17626;-522;0
17626;-513;0
17626;-543;0
17626;-546;0
17626;-572;0
17626;-500;0
17626;-493;0
17626;-493;0
17626;-522;0
17626;-508;0
17626;-529;0
17626;-500;0
17626;-496;0
17626;-453;0
17626;-481;0
17626;-500;0
17626;-520;0
17626;-500;0
17626;-495;0
17626;-477;0
17626;-476;0
17626;-486;0
17626;-509;0
17626;-538;0
17626;-522;0
17626;-464;0
17626;-477;0
17626;-478;0
17626;-496;0
17626;-488;0
17626;-495;0
17626;-470;0
17626;-469;0
17626;-436;0
17626;-490;0
17626;-503;0
17626;-513;0
17626;-480;0
17626;-471;0
17626;-482;0
17626;-464;0
17626;-491;0
17626;-519;0
17626;-509;0
17626;-484;0
17626;-450;0
17626;-482;0
17626;-477;0
17626;-498;0
17626;-485;0
17626;-505;0
17626;-462;0
17626;-450;0
17626;-461;0
17626;-512;0
17626;-508;0
17626;-499;0
17626;-492;0
17626;-494;0
17626;-471;0
17626;-501;0
17626;-504;0
17626;-525;0
17626;-512;0
17626;-472;0
17626;-461;0
17626;-500;0
17626;-490;0
17626;-516;0
17626;-508;0
17626;-503;0
17626;-478;0
17626;-472;0
17626;-482;0
17626;-519;0
17626;-526;0
