25;-489;1
25;-491;1
25;-508;1
25;-487;1
25;-508;1
25;-493;1
25;-504;1
25;-492;1
25;-512;1
25;-495;1
25;-501;1
25;-513;1
25;-495;1
25;-512;1
25;-528;1
25;-499;1
25;-525;1
25;-491;1
25;-497;1
25;-505;1
25;-517;1
25;-497;1
25;-503;1
25;-517;1
25;-503;1
25;-517;1
25;-487;1
25;-510;1
25;-503;1
25;-504;1
25;-501;1
25;-492;1
25;-507;1
25;-482;1
25;-494;1
25;-507;1
25;-498;1
25;-499;1
25;-509;1
25;-488;1
25;-511;1
25;-498;1
25;-509;1
25;-491;1
25;-513;1
25;-495;1
25;-516;1
25;-501;1
81;-521;1
81;-500;1
81;-516;1
81;-488;1
81;-509;1
81;-486;1
81;-489;1
81;-500;1
81;-506;1
81;-477;1
81;-490;1
81;-476;1
81;-488;1
81;-474;1
81;-488;1
81;-469;1
81;-484;1
81;-489;1
81;-476;1
81;-494;1
81;-469;1
81;-485;1
81;-481;1
81;-491;1
81;-480;1
81;-477;1
81;-489;1
81;-472;1
81;-484;1
81;-472;1
81;-473;1
81;-479;1
81;-490;1
81;-465;1
81;-474;1
81;-487;1
81;-460;1
81;-469;1
81;-485;1
81;-464;1
81;-462;1
81;-467;1
81;-446;1
81;-457;1
81;-465;1
81;-445;1
81;-458;1
81;-464;1
81;-446;1
81;-457;1
81;-470;1
81;-450;1
81;-480;1
81;-454;1
131;-466;1
131;-468;1
131;-469;1
131;-462;1
131;-468;1
131;-480;1
131;-461;1
131;-466;1
131;-454;1
131;-473;1
131;-462;1
131;-464;1
131;-461;1
131;-454;1
131;-468;1
131;-448;1
131;-453;1
131;-461;1
131;-451;1
131;-450;1
131;-463;1
131;-439;1
131;-455;1
131;-439;1
131;-445;1
131;-441;1
131;-452;1
131;-435;1
131;-453;1
131;-420;1
131;-438;1
131;-427;1
131;-437;1
131;-413;1
131;-436;1
131;-424;1
131;-433;1
131;-421;1
131;-441;1
131;-416;1
131;-430;1
131;-408;1
131;-425;1
131;-428;1
131;-437;1
131;-420;1
131;-442;1
131;-414;1
131;-430;1
131;-424;1
131;-435;1
131;-424;1
131;-434;1
131;-426;1
185;-429;1
185;-428;1
185;-442;1
185;-417;1
185;-436;1
185;-427;1
185;-437;1
185;-436;1
185;-454;1
185;-432;1
185;-456;1
185;-438;1
185;-453;1
185;-441;1
185;-452;1
185;-434;1
185;-467;1
185;-452;1
185;-458;1
185;-467;1
185;-489;1
185;-471;1
185;-493;1
185;-478;1
185;-492;1
185;-495;1
185;-499;1
185;-491;1
185;-517;1
185;-494;1
185;-508;1
185;-516;1
185;-524;1
185;-507;1
185;-518;1
185;-502;1
185;-533;1
185;-510;1
185;-526;1
185;-513;1
185;-533;1
185;-525;1
185;-535;1
185;-525;1
185;-539;1
185;-525;1
185;-530;1
185;-552;1
238;-539;1
238;-544;1
238;-560;1
238;-539;1
238;-559;1
238;-542;1
238;-546;1
238;-552;1
238;-560;1
238;-542;1
238;-551;1
238;-564;1
238;-537;1
238;-548;1
238;-564;1
238;-542;1
238;-565;1
238;-538;1
238;-548;1
238;-550;1
238;-564;1
238;-535;1
238;-557;1
238;-533;1
238;-545;1
238;-540;1
238;-549;1
238;-539;1
238;-550;1
238;-566;1
238;-552;1
238;-567;1
238;-556;1
238;-577;1
238;-567;1
238;-577;1
238;-578;1
238;-577;1
238;-601;1
238;-584;1
238;-590;1
238;-608;1
238;-591;1
238;-599;1
238;-614;1
238;-592;1
238;-600;1
238;-616;1
238;-594;1
238;-604;1
238;-615;1
238;-596;1
238;-620;1
238;-586;1
291;-601;1
291;-601;1
291;-604;1
291;-585;1
291;-593;1
291;-605;1
291;-577;1
291;-578;1
291;-578;1
291;-561;1
291;-570;1
291;-549;1
291;-556;1
291;-555;1
291;-556;1
291;-536;1
291;-541;1
291;-553;1
291;-539;1
291;-543;1
291;-538;1
291;-553;1
291;-556;1
291;-565;1
291;-577;1
291;-575;1
291;-586;1
291;-555;1
291;-579;1
291;-563;1
291;-559;1
291;-561;1
291;-576;1
291;-555;1
291;-569;1
291;-551;1
291;-565;1
291;-552;1
291;-564;1
291;-539;1
291;-561;1
291;-541;1
291;-553;1
291;-532;1
291;-551;1
291;-532;1
291;-560;1
291;-534;1
341;-544;1
341;-542;1
341;-554;1
341;-551;1
341;-579;1
341;-558;1
341;-559;1
341;-560;1
341;-576;1
341;-558;1
341;-553;1
341;-558;1
341;-553;1
341;-536;1
341;-566;1
341;-542;1
341;-548;1
341;-548;1
341;-529;1
341;-523;1
341;-535;1
341;-506;1
341;-508;1
341;-493;1
341;-507;1
341;-495;1
341;-522;1
341;-523;1
341;-552;1
341;-569;1
341;-552;1
341;-571;1
341;-579;1
341;-563;1
341;-592;1
341;-585;1
341;-613;1
341;-612;1
341;-637;1
341;-623;1
341;-652;1
341;-679;1
341;-684;1
341;-713;1
341;-752;1
341;-723;1
341;-717;1
341;-694;1
341;-713;1
341;-672;1
341;-650;1
341;-583;1
341;-531;1
341;-497;1
393;-455;1
393;-396;1
393;-333;1
393;-254;1
393;-247;1
393;-253;1
393;-251;1
393;-264;1
393;-311;1
393;-318;1
393;-375;1
393;-285;1
393;-286;1
393;-328;1
393;-378;1
393;-373;1
393;-418;1
393;-415;1
393;-444;1
393;-483;1
393;-503;1
393;-596;1
393;-530;1
393;-523;1
393;-512;1
393;-455;1
393;-540;1
393;-507;1
393;-516;1
393;-485;1
393;-499;1
393;-501;1
393;-516;1
393;-503;1
393;-515;1
393;-533;1
393;-520;1
393;-605;1
393;-529;1
393;-528;1
393;-518;1
393;-455;1
393;-520;1
393;-511;1
393;-528;1
393;-502;1
393;-485;1
393;-493;1
444;-476;1
444;-471;1
444;-489;1
444;-454;1
444;-474;1
444;-526;1
444;-472;1
444;-442;1
444;-445;1
444;-345;1
444;-424;1
444;-434;1
444;-416;1
444;-429;1
444;-428;1
444;-414;1
444;-433;1
444;-415;1
444;-437;1
444;-450;1
444;-455;1
444;-519;1
444;-491;1
444;-468;1
444;-477;1
444;-415;1
444;-503;1
444;-499;1
444;-506;1
444;-517;1
444;-536;1
444;-517;1
444;-542;1
444;-525;1
444;-548;1
444;-541;1
444;-542;1
444;-609;1
444;-556;1
444;-525;1
444;-530;1
444;-457;1
444;-531;1
444;-511;1
444;-521;1
444;-488;1
444;-604;1
444;-606;1
496;-560;1
496;-561;1
496;-557;1
496;-528;1
496;-540;1
496;-513;1
496;-521;1
496;-514;1
496;-513;1
496;-492;1
496;-502;1
496;-472;1
496;-480;1
496;-484;1
496;-496;1
496;-486;1
496;-508;1
496;-498;1
496;-526;1
496;-504;1
496;-531;1
496;-504;1
496;-526;1
496;-513;1
496;-493;1
496;-493;1
496;-493;1
496;-493;1
496;-493;1
496;-493;1
496;-493;1
496;-493;1
496;-493;1
496;-493;1
496;-493;1
496;-493;1
496;-493;1
496;-481;1
496;-471;1
496;-482;1
496;-474;1
496;-486;1
496;-477;1
496;-477;1
496;-494;1
496;-469;1
496;-500;1
496;-489;1
496;-502;1
496;-493;1
496;-507;1
496;-492;1
496;-522;1
496;-504;1
552;-516;1
552;-519;1
552;-524;1
552;-508;1
552;-530;1
552;-511;1
552;-529;1
552;-514;1
552;-539;1
552;-527;1
552;-546;1
552;-532;1
552;-541;1
552;-546;1
552;-558;1
552;-543;1
552;-560;1
552;-543;1
552;-555;1
552;-528;1
552;-548;1
552;-520;1
552;-536;1
552;-536;1
552;-536;1
552;-525;1
552;-556;1
552;-547;1
552;-545;1
552;-552;1
552;-554;1
552;-565;1
552;-585;1
552;-567;1
552;-588;1
552;-571;1
552;-584;1
552;-568;1
552;-583;1
552;-569;1
552;-597;1
552;-602;1
552;-582;1
552;-587;1
552;-596;1
552;-570;1
552;-568;1
552;-578;1
552;-562;1
552;-570;1
552;-574;1
552;-566;1
552;-578;1
552;-554;1
606;-568;1
606;-572;1
606;-583;1
606;-558;1
606;-558;1
606;-575;1
606;-548;1
606;-554;1
606;-537;1
606;-548;1
606;-547;1
606;-556;1
606;-552;1
606;-550;1
606;-578;1
606;-562;1
606;-559;1
606;-572;1
606;-558;1
606;-567;1
606;-581;1
606;-559;1
606;-582;1
606;-559;1
606;-559;1
606;-568;1
606;-569;1
606;-542;1
606;-559;1
606;-565;1
606;-542;1
606;-548;1
606;-557;1
606;-539;1
606;-544;1
606;-557;1
606;-557;1
606;-557;1
606;-557;1
606;-557;1
606;-557;1
606;-557;1
606;-557;1
606;-557;1
606;-557;1
606;-557;1
606;-557;1
606;-557;1
606;-557;1
606;-538;1
606;-566;1
606;-539;1
606;-541;1
606;-555;1
606;-529;1
606;-544;1
606;-528;1
606;-534;1
606;-524;1
606;-536;1
606;-525;1
606;-530;1
606;-530;1
606;-532;1
606;-532;1
606;-539;1
674;-529;1
674;-523;1
674;-538;1
674;-519;1
674;-530;1
674;-503;1
674;-509;1
674;-508;1
674;-521;1
674;-504;1
674;-522;1
674;-499;1
674;-523;1
674;-509;1
674;-529;1
674;-529;1
674;-564;1
674;-544;1
674;-556;1
674;-524;1
674;-549;1
674;-521;1
674;-551;1
674;-549;1
674;-553;1
674;-545;1
674;-549;1
674;-524;1
674;-543;1
674;-531;1
674;-548;1
674;-532;1
674;-552;1
674;-524;1
674;-551;1
674;-545;1
674;-543;1
674;-554;1
674;-530;1
674;-520;1
674;-525;1
674;-535;1
674;-520;1
674;-522;1
674;-539;1
674;-516;1
674;-543;1
674;-520;1
720;-523;1
720;-525;1
720;-539;1
720;-533;1
720;-557;1
720;-541;1
720;-550;1
720;-553;1
720;-563;1
720;-547;1
720;-565;1
720;-547;1
720;-546;1
720;-543;1
720;-555;1
720;-525;1
720;-542;1
720;-520;1
720;-534;1
720;-508;1
720;-535;1
720;-515;1
720;-525;1
720;-529;1
720;-506;1
720;-531;1
720;-510;1
720;-531;1
720;-532;1
720;-529;1
720;-528;1
720;-529;1
720;-536;1
720;-508;1
720;-525;1
720;-522;1
720;-508;1
720;-514;1
720;-519;1
720;-499;1
720;-520;1
720;-509;1
720;-521;1
720;-518;1
720;-527;1
720;-516;1
720;-516;1
720;-529;1
760;-505;1
760;-514;1
760;-535;1
760;-506;1
760;-514;1
760;-528;1
760;-515;1
760;-519;1
760;-530;1
760;-518;1
760;-538;1
760;-529;1
760;-534;1
760;-536;1
760;-548;1
760;-532;1
760;-564;1
760;-547;1
760;-567;1
760;-543;1
760;-564;1
760;-544;1
760;-565;1
760;-546;1
760;-548;1
760;-556;1
760;-556;1
760;-537;1
760;-543;1
760;-554;1
760;-540;1
760;-543;1
760;-562;1
760;-542;1
760;-553;1
760;-562;1
760;-550;1
760;-553;1
760;-567;1
760;-550;1
760;-571;1
760;-559;1
760;-555;1
760;-550;1
760;-565;1
760;-541;1
760;-548;1
760;-558;1
760;-543;1
760;-547;1
760;-559;1
760;-540;1
760;-558;1
760;-539;1
813;-540;1
813;-546;1
813;-555;1
813;-532;1
813;-555;1
813;-542;1
813;-560;1
813;-554;1
813;-555;1
813;-544;1
813;-545;1
813;-543;1
813;-532;1
813;-529;1
813;-554;1
813;-537;1
813;-541;1
813;-547;1
813;-537;1
813;-541;1
813;-554;1
813;-537;1
813;-546;1
813;-558;1
813;-537;1
813;-546;1
813;-556;1
813;-531;1
813;-533;1
813;-538;1
813;-522;1
813;-527;1
813;-537;1
813;-516;1
813;-530;1
813;-512;1
813;-536;1
813;-518;1
813;-535;1
813;-517;1
813;-544;1
813;-523;1
813;-525;1
813;-531;1
813;-539;1
813;-520;1
813;-541;1
813;-522;1
865;-529;1
865;-518;1
865;-525;1
865;-497;1
865;-521;1
865;-539;1
865;-524;1
865;-521;1
865;-532;1
865;-519;1
865;-550;1
865;-537;1
865;-544;1
865;-546;1
865;-553;1
865;-541;1
865;-571;1
865;-559;1
865;-576;1
865;-559;1
865;-576;1
865;-554;1
865;-573;1
865;-548;1
865;-548;1
865;-546;1
865;-567;1
865;-542;1
865;-563;1
865;-543;1
865;-544;1
865;-550;1
865;-567;1
865;-547;1
865;-564;1
865;-540;1
865;-551;1
865;-556;1
865;-562;1
865;-539;1
865;-545;1
865;-556;1
865;-533;1
865;-531;1
865;-523;1
865;-526;1
865;-531;1
865;-534;1
865;-526;1
865;-526;1
865;-537;1
865;-515;1
865;-539;1
865;-525;1
916;-519;1
916;-524;1
916;-545;1
916;-524;1
916;-542;1
916;-515;1
916;-539;1
916;-518;1
916;-531;1
916;-510;1
916;-522;1
916;-542;1
916;-518;1
916;-528;1
916;-546;1
916;-532;1
916;-554;1
916;-536;1
916;-551;1
916;-557;1
916;-565;1
916;-540;1
916;-568;1
916;-548;1
916;-568;1
916;-546;1
916;-565;1
916;-541;1
916;-562;1
916;-563;1
916;-584;1
916;-564;1
916;-587;1
916;-568;1
916;-594;1
916;-589;1
916;-600;1
916;-592;1
916;-595;1
916;-581;1
916;-599;1
916;-576;1
916;-577;1
916;-583;1
916;-598;1
916;-571;1
916;-582;1
916;-557;1
972;-576;1
972;-553;1
972;-565;1
972;-540;1
972;-557;1
972;-545;1
972;-559;1
972;-557;1
972;-577;1
972;-566;1
972;-588;1
972;-570;1
972;-581;1
972;-598;1
972;-609;1
972;-593;1
972;-613;1
972;-593;1
972;-606;1
972;-622;1
972;-638;1
972;-621;1
972;-655;1
972;-648;1
972;-691;1
972;-710;1
972;-716;1
972;-681;1
972;-674;1
972;-688;1
972;-674;1
972;-644;1
972;-616;1
972;-563;1
972;-553;1
972;-498;1
972;-463;1
972;-417;1
972;-351;1
972;-273;1
972;-280;1
972;-268;1
972;-294;1
972;-298;1
972;-341;1
972;-356;1
972;-403;1
972;-347;1
972;-307;1
972;-379;1
972;-419;1
972;-417;1
972;-440;1
972;-458;1
1021;-451;1
1021;-584;1
1021;-531;1
1021;-507;1
1021;-518;1
1021;-465;1
1021;-531;1
1021;-550;1
1021;-562;1
1021;-553;1
1021;-570;1
1021;-584;1
1021;-575;1
1021;-579;1
1021;-571;1
1021;-592;1
1021;-584;1
1021;-664;1
1021;-599;1
1021;-580;1
1021;-591;1
1021;-507;1
1021;-586;1
1021;-597;1
1021;-581;1
1021;-581;1
1021;-595;1
1021;-571;1
1021;-586;1
1021;-564;1
1021;-585;1
1021;-562;1
1021;-578;1
1021;-619;1
1021;-557;1
1021;-551;1
1021;-513;1
1021;-446;1
1021;-511;1
1021;-488;1
1021;-495;1
1021;-503;1
1021;-483;1
1021;-490;1
1021;-505;1
1021;-488;1
1021;-523;1
1021;-512;1
1074;-538;1
1074;-595;1
1074;-587;1
1074;-567;1
1074;-581;1
1074;-518;1
1074;-586;1
1074;-585;1
1074;-603;1
1074;-585;1
1074;-594;1
1074;-580;1
1074;-593;1
1074;-589;1
1074;-589;1
1074;-571;1
1074;-590;1
1074;-644;1
1074;-599;1
1074;-579;1
1074;-594;1
1074;-506;1
1074;-585;1
1074;-600;1
1074;-584;1
1074;-589;1
1074;-600;1
1074;-576;1
1074;-697;1
1074;-671;1
1074;-642;1
1074;-641;1
1074;-647;1
1074;-628;1
1074;-636;1
1074;-616;1
1074;-630;1
1074;-606;1
1074;-624;1
1074;-605;1
1074;-611;1
1074;-627;1
1074;-609;1
1074;-628;1
1074;-612;1
1074;-614;1
1074;-617;1
1074;-626;1
1074;-600;1
1074;-614;1
1074;-608;1
1074;-630;1
1074;-626;1
1074;-631;1
1127;-621;1
1127;-624;1
1127;-633;1
1127;-610;1
1127;-635;1
1127;-617;1
1127;-619;1
1127;-622;1
1127;-640;1
1127;-623;1
1127;-629;1
1127;-649;1
1127;-636;1
1127;-642;1
1127;-640;1
1127;-619;1
1127;-644;1
1127;-622;1
1127;-620;1
1127;-640;1
1127;-655;1
1127;-633;1
1127;-634;1
1127;-643;1
1127;-624;1
1127;-641;1
1127;-653;1
1127;-636;1
1127;-676;1
1127;-662;1
1127;-684;1
1127;-680;1
1127;-699;1
1127;-672;1
1127;-684;1
1127;-696;1
1127;-710;1
1127;-712;1
1127;-724;1
1127;-709;1
1127;-734;1
1127;-736;1
1127;-755;1
1127;-747;1
1127;-774;1
1127;-762;1
1127;-771;1
1127;-796;1
1127;-787;1
1127;-805;1
1127;-815;1
1127;-796;1
1127;-805;1
1127;-804;1
1178;-789;1
1178;-801;1
1178;-812;1
1178;-796;1
1178;-806;1
1178;-813;1
1178;-798;1
1178;-812;1
1178;-834;1
1178;-823;1
1178;-851;1
1178;-829;1
1178;-829;1
1178;-833;1
1178;-845;1
1178;-835;1
1178;-857;1
1178;-837;1
1178;-852;1
1178;-833;1
1178;-851;1
1178;-834;1
1178;-844;1
1178;-842;1
1178;-826;1
1178;-820;1
1178;-845;1
1178;-829;1
1178;-835;1
1178;-857;1
1178;-857;1
1178;-857;1
1178;-866;1
1178;-850;1
1178;-876;1
1178;-859;1
1178;-878;1
1178;-856;1
1178;-879;1
1178;-860;1
1178;-865;1
1178;-875;1
1228;-854;1
1228;-863;1
1228;-867;1
1228;-843;1
1228;-860;1
1228;-840;1
1228;-864;1
1228;-845;1
1228;-868;1
1228;-848;1
1228;-865;1
1228;-858;1
1228;-868;1
1228;-845;1
1228;-862;1
1228;-837;1
1228;-849;1
1228;-853;1
1228;-832;1
1228;-847;1
1228;-828;1
1228;-827;1
1228;-834;1
1228;-839;1
1228;-845;1
1228;-848;1
1228;-847;1
1228;-861;1
1228;-849;1
1228;-861;1
1228;-864;1
1228;-852;1
1228;-867;1
1228;-843;1
1228;-834;1
1228;-853;1
1228;-832;1
1228;-833;1
1228;-850;1
1228;-832;1
1228;-844;1
1228;-817;1
1228;-826;1
1228;-835;1
1228;-848;1
1228;-824;1
1228;-841;1
1228;-823;1
1228;-828;1
1228;-827;1
1228;-847;1
1228;-831;1
1228;-851;1
1228;-835;1
1281;-847;1
1281;-842;1
1281;-849;1
1281;-823;1
1281;-838;1
1281;-814;1
1281;-829;1
1281;-803;1
1281;-817;1
1281;-796;1
1281;-816;1
1281;-802;1
1281;-802;1
1281;-797;1
1281;-794;1
1281;-799;1
1281;-803;1
1281;-803;1
1281;-800;1
1281;-808;1
1281;-820;1
1281;-795;1
1281;-811;1
1281;-785;1
1281;-777;1
1281;-773;1
1281;-758;1
1281;-722;1
1281;-731;1
1281;-688;1
1281;-690;1
1281;-681;1
1281;-686;1
1281;-654;1
1281;-648;1
1281;-600;1
1281;-598;1
1281;-594;1
1281;-607;1
1281;-586;1
1281;-606;1
1281;-584;1
1281;-590;1
1281;-592;1
1281;-596;1
1281;-561;1
1281;-574;1
1281;-586;1
1281;-603;1
1281;-596;1
1281;-617;1
1281;-607;1
1281;-612;1
1281;-620;1
1335;-627;1
1335;-625;1
1335;-655;1
1335;-632;1
1335;-646;1
1335;-639;1
1335;-652;1
1335;-639;1
1335;-653;1
1335;-627;1
1335;-621;1
1335;-622;1
1335;-601;1
1335;-595;1
1335;-606;1
1335;-581;1
1335;-607;1
1335;-592;1
1335;-614;1
1335;-598;1
1335;-621;1
1335;-607;1
1335;-620;1
1335;-587;1
1335;-609;1
1335;-583;1
1335;-598;1
1335;-581;1
1335;-605;1
1335;-586;1
1335;-600;1
1335;-609;1
1335;-619;1
1335;-598;1
1335;-607;1
1335;-605;1
1335;-618;1
1335;-596;1
1335;-612;1
1335;-601;1
1335;-602;1
1335;-603;1
1335;-599;1
1335;-602;1
1335;-592;1
1335;-590;1
1335;-577;1
1335;-590;1
1386;-581;1
1386;-569;1
1386;-584;1
1386;-561;1
1386;-573;1
1386;-547;1
1386;-554;1
1386;-555;1
1386;-565;1
1386;-544;1
1386;-569;1
1386;-549;1
1386;-562;1
1386;-534;1
1386;-546;1
1386;-527;1
1386;-534;1
1386;-506;1
1386;-511;1
1386;-508;1
1386;-511;1
1386;-475;1
1386;-487;1
1386;-463;1
1386;-480;1
1386;-459;1
1386;-493;1
1386;-464;1
1386;-462;1
1386;-471;1
1386;-447;1
1386;-455;1
1386;-433;1
1386;-439;1
1386;-441;1
1386;-423;1
1386;-420;1
1386;-418;1
1386;-438;1
1386;-413;1
1386;-413;1
1386;-418;1
1386;-396;1
1386;-396;1
1386;-411;1
1386;-386;1
1386;-400;1
1386;-428;1
1438;-414;1
1438;-423;1
1438;-441;1
1438;-418;1
1438;-442;1
1438;-415;1
1438;-417;1
1438;-396;1
1438;-420;1
1438;-402;1
1438;-414;1
1438;-412;1
1438;-394;1
1438;-407;1
1438;-420;1
1438;-401;1
1438;-416;1
1438;-398;1
1438;-418;1
1438;-395;1
1438;-412;1
1438;-388;1
1438;-403;1
1438;-377;1
1438;-392;1
1438;-361;1
1438;-369;1
1438;-341;1
1438;-351;1
1438;-371;1
1438;-356;1
1438;-333;1
1438;-343;1
1438;-331;1
1438;-317;1
1438;-313;1
1438;-293;1
1438;-301;1
1438;-316;1
1438;-305;1
1438;-331;1
1438;-313;1
1438;-323;1
1438;-304;1
1438;-324;1
1438;-285;1
1438;-283;1
1438;-291;1
1438;-263;1
1438;-268;1
1438;-272;1
1438;-242;1
1438;-257;1
1438;-238;1
1489;-247;1
1489;-252;1
1489;-257;1
1489;-227;1
1489;-233;1
1489;-243;1
1489;-230;1
1489;-250;1
1489;-266;1
1489;-246;1
1489;-272;1
1489;-245;1
1489;-263;1
1489;-247;1
1489;-270;1
1489;-266;1
1489;-270;1
1489;-271;1
1489;-260;1
1489;-259;1
1489;-265;1
1489;-269;1
1489;-274;1
1489;-298;1
1489;-297;1
1489;-306;1
1489;-322;1
1489;-303;1
1489;-321;1
1489;-307;1
1489;-331;1
1489;-311;1
1489;-328;1
1489;-307;1
1489;-330;1
1489;-321;1
1489;-332;1
1489;-307;1
1489;-343;1
1489;-329;1
1489;-335;1
1489;-346;1
1489;-325;1
1489;-320;1
1489;-333;1
1489;-336;1
1489;-369;1
1489;-348;1
1539;-361;1
1539;-367;1
1539;-383;1
1539;-366;1
1539;-376;1
1539;-389;1
1539;-363;1
1539;-376;1
1539;-364;1
1539;-372;1
1539;-372;1
1539;-384;1
1539;-366;1
1539;-372;1
1539;-406;1
1539;-388;1
1539;-410;1
1539;-387;1
1539;-398;1
1539;-391;1
1539;-400;1
1539;-379;1
1539;-387;1
1539;-364;1
1539;-362;1
1539;-357;1
1539;-374;1
1539;-359;1
1539;-368;1
1539;-396;1
1539;-386;1
1539;-376;1
1539;-383;1
1539;-356;1
1539;-374;1
1539;-360;1
1539;-380;1
1539;-390;1
1539;-416;1
1539;-394;1
1539;-422;1
1539;-409;1
1539;-431;1
1539;-423;1
1539;-447;1
1539;-438;1
1539;-468;1
1539;-461;1
1539;-483;1
1539;-482;1
1539;-514;1
1539;-523;1
1539;-575;1
1539;-596;1
1590;-617;1
1590;-638;1
1590;-672;1
1590;-645;1
1590;-639;1
1590;-606;1
1590;-626;1
1590;-599;1
1590;-574;1
1590;-521;1
1590;-482;1
1590;-465;1
1590;-428;1
1590;-411;1
1590;-347;1
1590;-271;1
1590;-268;1
1590;-277;1
1590;-290;1
1590;-328;1
1590;-370;1
1590;-381;1
1590;-415;1
1590;-413;1
1590;-435;1
1590;-456;1
1590;-478;1
1590;-477;1
1590;-506;1
1590;-506;1
1590;-528;1
1590;-505;1
1590;-520;1
1590;-504;1
1590;-518;1
1590;-539;1
1590;-506;1
1590;-519;1
1590;-485;1
1590;-509;1
1590;-506;1
1590;-514;1
1590;-512;1
1590;-512;1
1590;-527;1
1590;-503;1
1590;-523;1
1590;-508;1
1641;-514;1
1641;-503;1
1641;-512;1
1641;-484;1
1641;-497;1
1641;-467;1
1641;-471;1
1641;-438;1
1641;-450;1
1641;-427;1
1641;-419;1
1641;-425;1
1641;-403;1
1641;-409;1
1641;-413;1
1641;-387;1
1641;-396;1
1641;-382;1
1641;-398;1
1641;-365;1
1641;-378;1
1641;-362;1
1641;-376;1
1641;-397;1
1641;-385;1
1641;-410;1
1641;-428;1
1641;-396;1
1641;-411;1
1641;-426;1
1641;-402;1
1641;-401;1
1641;-389;1
1641;-408;1
1641;-405;1
1641;-406;1
1641;-398;1
1641;-392;1
1641;-406;1
1641;-379;1
1641;-403;1
1641;-385;1
1641;-391;1
1641;-397;1
1641;-422;1
1641;-397;1
1641;-417;1
1641;-397;1
1691;-425;1
1691;-404;1
1691;-422;1
1691;-397;1
1691;-419;1
1691;-397;1
1691;-404;1
1691;-406;1
1691;-412;1
1691;-397;1
1691;-403;1
1691;-424;1
1691;-406;1
1691;-421;1
1691;-436;1
1691;-419;1
1691;-439;1
1691;-464;1
1691;-439;1
1691;-453;1
1691;-458;1
1691;-432;1
1691;-437;1
1691;-444;1
1691;-457;1
1691;-439;1
1691;-460;1
1691;-434;1
1691;-445;1
1691;-454;1
1691;-441;1
1691;-435;1
1691;-436;1
1691;-413;1
1691;-432;1
1691;-457;1
1691;-442;1
1691;-430;1
1691;-445;1
1691;-424;1
1691;-423;1
1691;-431;1
1691;-412;1
1691;-403;1
1691;-406;1
1691;-386;1
1691;-402;1
1691;-382;1
1742;-389;1
1742;-360;1
1742;-383;1
1742;-359;1
1742;-361;1
1742;-346;1
1742;-355;1
1742;-340;1
1742;-361;1
1742;-346;1
1742;-363;1
1742;-335;1
1742;-324;1
1742;-319;1
1742;-328;1
1742;-304;1
1742;-317;1
1742;-291;1
1742;-312;1
1742;-292;1
1742;-299;1
1742;-287;1
1742;-281;1
1742;-291;1
1742;-280;1
1742;-281;1
1742;-288;1
1742;-271;1
1742;-291;1
1742;-276;1
1742;-278;1
1742;-282;1
1742;-297;1
1742;-270;1
1742;-299;1
1742;-286;1
1742;-311;1
1742;-292;1
1742;-305;1
1742;-277;1
1742;-301;1
1742;-277;1
1742;-293;1
1742;-279;1
1742;-293;1
1742;-272;1
1742;-283;1
1742;-295;1
1742;-280;1
1742;-289;1
1742;-304;1
1742;-285;1
1742;-296;1
1742;-308;1
1793;-298;1
1793;-306;1
1793;-325;1
1793;-311;1
1793;-330;1
1793;-313;1
1793;-331;1
1793;-329;1
1793;-341;1
1793;-331;1
1793;-350;1
1793;-340;1
1793;-352;1
1793;-341;1
1793;-348;1
1793;-334;1
1793;-357;1
1793;-339;1
1793;-346;1
1793;-350;1
1793;-366;1
1793;-340;1
1793;-356;1
1793;-376;1
1793;-349;1
1793;-353;1
1793;-369;1
1793;-353;1
1793;-359;1
1793;-378;1
1793;-367;1
1793;-373;1
1793;-385;1
1793;-363;1
1793;-374;1
1793;-350;1
1793;-351;1
1793;-348;1
1793;-353;1
1793;-330;1
1793;-351;1
1793;-322;1
1793;-339;1
1793;-312;1
1793;-329;1
1793;-298;1
1793;-313;1
1793;-297;1
1844;-303;1
1844;-288;1
1844;-298;1
1844;-276;1
1844;-276;1
1844;-284;1
1844;-269;1
1844;-260;1
1844;-264;1
1844;-244;1
1844;-268;1
1844;-258;1
1844;-272;1
1844;-254;1
1844;-266;1
1844;-240;1
1844;-255;1
1844;-237;1
1844;-254;1
1844;-247;1
1844;-273;1
1844;-253;1
1844;-263;1
1844;-275;1
1844;-270;1
1844;-277;1
1844;-278;1
1844;-267;1
1844;-289;1
1844;-275;1
1844;-293;1
1844;-301;1
1844;-327;1
1844;-316;1
1844;-328;1
1844;-332;1
1844;-310;1
1844;-336;1
1844;-313;1
1844;-328;1
1844;-339;1
1844;-350;1
1844;-349;1
1844;-352;1
1844;-351;1
1844;-372;1
1844;-363;1
1844;-368;1
1896;-376;1
1896;-389;1
1896;-406;1
1896;-387;1
1896;-404;1
1896;-399;1
1896;-415;1
1896;-415;1
1896;-433;1
1896;-423;1
1896;-453;1
1896;-439;1
1896;-447;1
1896;-450;1
1896;-464;1
1896;-444;1
1896;-467;1
1896;-450;1
1896;-472;1
1896;-456;1
1896;-477;1
1896;-452;1
1896;-459;1
1896;-464;1
1896;-439;1
1896;-448;1
1896;-458;1
1896;-434;1
1896;-447;1
1896;-422;1
1896;-445;1
1896;-427;1
1896;-444;1
1896;-419;1
1896;-439;1
1896;-428;1
1896;-433;1
1896;-437;1
1896;-425;1
1896;-429;1
1896;-451;1
1896;-439;1
1896;-451;1
1896;-443;1
1896;-450;1
1896;-431;1
1896;-450;1
1896;-431;1
1896;-447;1
1896;-440;1
1896;-464;1
1896;-449;1
1896;-464;1
1896;-485;1
1946;-472;1
1946;-476;1
1946;-492;1
1946;-462;1
1946;-476;1
1946;-496;1
1946;-478;1
1946;-489;1
1946;-500;1
1946;-480;1
1946;-494;1
1946;-472;1
1946;-482;1
1946;-482;1
1946;-497;1
1946;-469;1
1946;-489;1
1946;-471;1
1946;-497;1
1946;-476;1
1946;-495;1
1946;-478;1
1946;-489;1
1946;-495;1
1946;-494;1
1946;-485;1
1946;-506;1
1946;-485;1
1946;-491;1
1946;-501;1
1946;-495;1
1946;-490;1
1946;-502;1
1946;-479;1
1946;-508;1
1946;-487;1
1946;-490;1
1946;-492;1
1946;-498;1
1946;-473;1
1946;-500;1
1946;-482;1
1946;-486;1
1946;-480;1
1946;-490;1
1946;-464;1
1946;-480;1
1946;-486;1
1999;-466;1
1999;-479;1
1999;-491;1
1999;-471;1
1999;-478;1
1999;-491;1
1999;-473;1
1999;-488;1
1999;-505;1
1999;-485;1
1999;-488;1
1999;-488;1
1999;-500;1
1999;-485;1
1999;-500;1
1999;-490;1
1999;-506;1
1999;-502;1
1999;-507;1
1999;-513;1
1999;-510;1
1999;-526;1
1999;-518;1
1999;-522;1
1999;-509;1
1999;-512;1
1999;-526;1
1999;-506;1
1999;-525;1
1999;-513;1
1999;-528;1
1999;-518;1
1999;-536;1
1999;-516;1
1999;-534;1
1999;-549;1
1999;-530;1
1999;-537;1
1999;-558;1
1999;-539;1
1999;-563;1
1999;-545;1
1999;-567;1
1999;-553;1
1999;-575;1
1999;-558;1
1999;-577;1
1999;-584;1
2063;-574;1
2063;-587;1
2063;-589;1
2063;-573;1
2063;-593;1
2063;-572;1
2063;-591;1
2063;-575;1
2063;-590;1
2063;-581;1
2063;-583;1
2063;-572;1
2063;-577;1
2063;-570;1
2063;-584;1
2063;-559;1
2063;-581;1
2063;-581;1
2063;-592;1
2063;-580;1
2063;-591;1
2063;-570;1
2063;-589;1
2063;-571;1
2063;-580;1
2063;-584;1
2063;-593;1
2063;-576;1
2063;-592;1
2063;-570;1
2063;-569;1
2063;-577;1
2063;-584;1
2063;-560;1
2063;-580;1
2063;-561;1
2063;-567;1
2063;-567;1
2063;-576;1
2063;-563;1
2063;-581;1
2063;-558;1
2063;-565;1
2063;-568;1
2063;-580;1
2063;-561;1
2063;-575;1
2063;-559;1
2063;-567;1
2063;-581;1
2063;-595;1
2063;-570;1
2063;-580;1
2063;-573;1
2102;-573;1
2102;-568;1
2102;-567;1
2102;-557;1
2102;-569;1
2102;-556;1
2102;-575;1
2102;-567;1
2102;-577;1
2102;-568;1
2102;-581;1
2102;-584;1
2102;-560;1
2102;-564;1
2102;-571;1
2102;-551;1
2102;-566;1
2102;-545;1
2102;-549;1
2102;-547;1
2102;-567;1
2102;-551;1
2102;-582;1
2102;-566;1
2102;-588;1
2102;-563;1
2102;-593;1
2102;-589;1
2102;-620;1
2102;-595;1
2102;-596;1
2102;-596;1
2102;-598;1
2102;-576;1
2102;-596;1
2102;-583;1
2102;-617;1
2102;-601;1
2102;-606;1
2102;-576;1
2102;-588;1
2102;-578;1
2102;-578;1
2102;-578;1
2102;-578;1
2102;-568;1
2102;-560;1
2102;-574;1
2155;-566;1
2155;-565;1
2155;-576;1
2155;-565;1
2155;-569;1
2155;-575;1
2155;-556;1
2155;-554;1
2155;-569;1
2155;-549;1
2155;-559;1
2155;-564;1
2155;-543;1
2155;-543;1
2155;-555;1
2155;-526;1
2155;-531;1
2155;-542;1
2155;-518;1
2155;-529;1
2155;-552;1
2155;-537;1
2155;-563;1
2155;-532;1
2155;-542;1
2155;-552;1
2155;-559;1
2155;-542;1
2155;-552;1
2155;-557;1
2155;-537;1
2155;-554;1
2155;-531;1
2155;-533;1
2155;-536;1
2155;-540;1
2155;-540;1
2155;-543;1
2155;-542;1
2155;-528;1
2155;-552;1
2155;-544;1
2155;-550;1
2155;-541;1
2155;-550;1
2155;-530;1
2155;-554;1
2155;-533;1
2208;-543;1
2208;-547;1
2208;-552;1
2208;-538;1
2208;-564;1
2208;-533;1
2208;-553;1
2208;-538;1
2208;-562;1
2208;-551;1
2208;-550;1
2208;-532;1
2208;-568;1
2208;-553;1
2208;-562;1
2208;-535;1
2208;-542;1
2208;-522;1
2208;-523;1
2208;-522;1
2208;-524;1
2208;-501;1
2208;-523;1
2208;-508;1
2208;-539;1
2208;-529;1
2208;-555;1
2208;-537;1
2208;-551;1
2208;-577;1
2208;-567;1
2208;-561;1
2208;-590;1
2208;-593;1
2208;-606;1
2208;-627;1
2208;-627;1
2208;-641;1
2208;-683;1
2208;-696;1
2208;-730;1
2208;-754;1
2208;-784;1
2208;-799;1
2208;-808;1
2208;-777;1
2208;-786;1
2208;-771;1
2208;-745;1
2208;-693;1
2208;-640;1
2208;-574;1
2208;-572;1
2208;-531;1
2258;-497;1
2258;-404;1
2258;-351;1
2258;-315;1
2258;-329;1
2258;-320;1
2258;-344;1
2258;-377;1
2258;-409;1
2258;-412;1
2258;-438;1
2258;-467;1
2258;-455;1
2258;-482;1
2258;-489;1
2258;-525;1
2258;-531;1
2258;-539;1
2258;-533;1
2258;-529;1
2258;-552;1
2258;-537;1
2258;-562;1
2258;-576;1
2258;-549;1
2258;-537;1
2258;-549;1
2258;-534;1
2258;-558;1
2258;-545;1
2258;-565;1
2258;-552;1
2258;-552;1
2258;-534;1
2258;-559;1
2258;-541;1
2258;-548;1
2258;-561;1
2258;-589;1
2258;-561;1
2258;-565;1
2258;-542;1
2258;-563;1
2258;-533;1
2258;-555;1
2258;-529;1
2258;-544;1
2258;-535;1
2309;-540;1
2309;-526;1
2309;-552;1
2309;-528;1
2309;-539;1
2309;-553;1
2309;-541;1
2309;-557;1
2309;-540;1
2309;-555;1
2309;-567;1
2309;-555;1
2309;-558;1
2309;-555;1
2309;-559;1
2309;-559;1
2309;-554;1
2309;-570;1
2309;-555;1
2309;-558;1
2309;-571;1
2309;-539;1
2309;-554;1
2309;-567;1
2309;-557;1
2309;-582;1
2309;-594;1
2309;-585;1
2309;-598;1
2309;-578;1
2309;-610;1
2309;-591;1
2309;-616;1
2309;-603;1
2309;-629;1
2309;-616;1
2309;-628;1
2309;-626;1
2309;-633;1
2309;-613;1
2309;-635;1
2309;-604;1
2309;-618;1
2309;-600;1
2309;-622;1
2309;-602;1
2309;-618;1
2309;-601;1
2309;-617;1
2309;-606;1
2309;-607;1
2309;-613;1
2309;-610;1
2309;-620;1
2360;-624;1
2360;-627;1
2360;-641;1
2360;-616;1
2360;-633;1
2360;-619;1
2360;-624;1
2360;-639;1
2360;-652;1
2360;-639;1
2360;-652;1
2360;-636;1
2360;-654;1
2360;-645;1
2360;-666;1
2360;-639;1
2360;-660;1
2360;-654;1
2360;-663;1
2360;-634;1
2360;-657;1
2360;-624;1
2360;-624;1
2360;-640;1
2360;-621;1
2360;-620;1
2360;-644;1
2360;-630;1
2360;-649;1
2360;-617;1
2360;-616;1
2360;-624;1
2360;-643;1
2360;-616;1
2360;-632;1
2360;-646;1
2360;-633;1
2360;-650;1
2360;-645;1
2360;-639;1
2360;-646;1
2360;-640;1
2360;-638;1
2360;-632;1
2360;-643;1
2360;-632;1
2360;-639;1
2360;-634;1
2412;-630;1
2412;-632;1
2412;-644;1
2412;-625;1
2412;-640;1
2412;-661;1
2412;-641;1
2412;-650;1
2412;-658;1
2412;-642;1
2412;-668;1
2412;-653;1
2412;-676;1
2412;-679;1
2412;-688;1
2412;-668;1
2412;-697;1
2412;-683;1
2412;-690;1
2412;-690;1
2412;-703;1
2412;-683;1
2412;-708;1
2412;-699;1
2412;-707;1
2412;-725;1
2412;-752;1
2412;-726;1
2412;-742;1
2412;-734;1
2412;-757;1
2412;-749;1
2412;-768;1
2412;-751;1
2412;-768;1
2412;-767;1
2412;-769;1
2412;-752;1
2412;-761;1
2412;-739;1
2412;-757;1
2412;-769;1
2412;-755;1
2412;-772;1
2412;-787;1
2412;-771;1
2412;-787;1
2412;-771;1
2412;-782;1
2412;-765;1
2412;-777;1
2412;-759;1
2412;-781;1
2412;-748;1
2463;-755;1
2463;-754;1
2463;-765;1
2463;-753;1
2463;-757;1
2463;-731;1
2463;-747;1
2463;-719;1
2463;-738;1
2463;-717;1
2463;-723;1
2463;-740;1
2463;-715;1
2463;-722;1
2463;-736;1
2463;-714;1
2463;-717;1
2463;-720;1
2463;-724;1
2463;-700;1
2463;-726;1
2463;-701;1
2463;-707;1
2463;-702;1
2463;-689;1
2463;-677;1
2463;-689;1
2463;-668;1
2463;-675;1
2463;-656;1
2463;-663;1
2463;-643;1
2463;-647;1
2463;-617;1
2463;-626;1
2463;-602;1
2463;-606;1
2463;-608;1
2463;-619;1
2463;-591;1
2463;-602;1
2463;-606;1
2518;-579;1
2518;-576;1
2518;-590;1
2518;-569;1
2518;-584;1
2518;-569;1
2518;-580;1
2518;-569;1
2518;-584;1
2518;-563;1
2518;-571;1
2518;-581;1
2518;-559;1
2518;-561;1
2518;-568;1
2518;-535;1
2518;-548;1
2518;-552;1
2518;-531;1
2518;-544;1
2518;-535;1
2518;-522;1
2518;-536;1
2518;-539;1
2518;-521;1
2518;-516;1
2518;-533;1
2518;-513;1
2518;-528;1
2518;-511;1
2518;-521;1
2518;-522;1
2518;-532;1
2518;-511;1
2518;-517;1
2518;-533;1
2518;-503;1
2518;-503;1
2518;-513;1
2518;-491;1
2518;-493;1
2518;-503;1
2518;-487;1
2518;-492;1
2518;-505;1
2518;-494;1
2518;-513;1
2518;-491;1
2518;-511;1
2518;-486;1
2518;-506;1
2518;-486;1
2518;-511;1
2518;-489;1
2518;-502;1
2518;-481;1
2518;-502;1
2518;-481;1
2518;-491;1
2518;-496;1
2572;-473;1
2572;-477;1
2572;-470;1
2572;-466;1
2572;-460;1
2572;-466;1
2572;-458;1
2572;-455;1
2572;-466;1
2572;-440;1
2572;-449;1
2572;-462;1
2572;-439;1
2572;-440;1
2572;-454;1
2572;-428;1
2572;-445;1
2572;-424;1
2572;-428;1
2572;-427;1
2572;-433;1
2572;-408;1
2572;-427;1
2572;-404;1
2572;-426;1
2572;-407;1
2572;-426;1
2572;-411;1
2572;-429;1
2572;-407;1
2572;-419;1
2572;-422;1
2572;-431;1
2572;-407;1
2572;-429;1
2572;-435;1
2572;-417;1
2572;-425;1
2572;-433;1
2572;-414;1
2572;-417;1
2572;-428;1
2572;-418;1
2572;-408;1
2572;-434;1
2572;-410;1
2572;-429;1
2572;-420;1
2623;-420;1
2623;-417;1
2623;-421;1
2623;-404;1
2623;-418;1
2623;-426;1
2623;-404;1
2623;-407;1
2623;-422;1
2623;-396;1
2623;-415;1
2623;-395;1
2623;-400;1
2623;-402;1
2623;-408;1
2623;-391;1
2623;-400;1
2623;-407;1
2623;-382;1
2623;-386;1
2623;-391;1
2623;-372;1
2623;-385;1
2623;-362;1
2623;-368;1
2623;-370;1
2623;-382;1
2623;-362;1
2623;-373;1
2623;-371;1
2623;-385;1
2623;-367;1
2623;-393;1
2623;-369;1
2623;-382;1
2623;-369;1
2623;-371;1
2623;-366;1
2623;-378;1
2623;-367;1
2623;-365;1
2623;-376;1
2623;-367;1
2623;-365;1
2623;-376;1
2623;-355;1
2623;-373;1
2623;-358;1
2623;-374;1
2623;-356;1
2623;-366;1
2623;-344;1
2623;-370;1
2623;-352;1
2677;-359;1
2677;-370;1
2677;-379;1
2677;-352;1
2677;-369;1
2677;-347;1
2677;-368;1
2677;-347;1
2677;-369;1
2677;-346;1
2677;-358;1
2677;-339;1
2677;-347;1
2677;-358;1
2677;-370;1
2677;-349;1
2677;-368;1
2677;-343;1
2677;-367;1
2677;-353;1
2677;-377;1
2677;-365;1
2677;-385;1
2677;-381;1
2677;-379;1
2677;-379;1
2677;-363;1
2677;-367;1
2677;-365;1
2677;-373;1
2677;-368;1
2677;-369;1
2677;-376;1
2677;-359;1
2677;-374;1
2677;-362;1
2677;-383;1
2677;-373;1
2677;-388;1
2677;-368;1
2677;-385;1
2677;-370;1
2677;-370;1
2677;-366;1
2677;-372;1
2677;-355;1
2677;-365;1
2677;-385;1
2677;-366;1
2677;-370;1
2677;-372;1
2677;-340;1
2677;-358;1
2677;-335;1
2729;-327;1
2729;-326;1
2729;-333;1
2729;-313;1
2729;-313;1
2729;-315;1
2729;-290;1
2729;-303;1
2729;-272;1
2729;-285;1
2729;-300;1
2729;-277;1
2729;-284;1
2729;-278;1
2729;-293;1
2729;-273;1
2729;-280;1
2729;-289;1
2729;-270;1
2729;-281;1
2729;-293;1
2729;-256;1
2729;-278;1
2729;-273;1
2729;-274;1
2729;-287;1
2729;-299;1
2729;-267;1
2729;-282;1
2729;-274;1
2729;-285;1
2729;-288;1
2729;-294;1
2729;-263;1
2729;-277;1
2729;-262;1
2729;-273;1
2729;-271;1
2729;-276;1
2729;-251;1
2729;-253;1
2729;-260;1
2729;-228;1
2729;-235;1
2729;-233;1
2729;-207;1
2729;-217;1
2729;-202;1
2782;-205;1
2782;-172;1
2782;-185;1
2782;-168;1
2782;-177;1
2782;-162;1
2782;-166;1
2782;-154;1
2782;-174;1
2782;-155;1
2782;-154;1
2782;-166;1
2782;-153;1
2782;-161;1
2782;-176;1
2782;-156;1
2782;-179;1
2782;-166;1
2782;-179;1
2782;-161;1
2782;-188;1
2782;-173;1
2782;-181;1
2782;-163;1
2782;-166;1
2782;-156;1
2782;-168;1
2782;-156;1
2782;-178;1
2782;-159;1
2782;-174;1
2782;-150;1
2782;-184;1
2782;-164;1
2782;-168;1
2782;-186;1
2782;-170;1
2782;-181;1
2782;-192;1
2782;-179;1
2782;-186;1
2782;-191;1
2782;-194;1
2782;-166;1
2782;-189;1
2782;-175;1
2782;-180;1
2782;-189;1
2782;-189;1
2782;-179;1
2782;-208;1
2782;-205;1
2782;-208;1
2782;-221;1
2833;-225;1
2833;-231;1
2833;-239;1
2833;-214;1
2833;-230;1
2833;-218;1
2833;-242;1
2833;-210;1
2833;-228;1
2833;-203;1
2833;-216;1
2833;-194;1
2833;-213;1
2833;-199;1
2833;-203;1
2833;-182;1
2833;-194;1
2833;-174;1
2833;-180;1
2833;-179;1
2833;-196;1
2833;-182;1
2833;-197;1
2833;-172;1
2833;-184;1
2833;-189;1
2833;-199;1
2833;-178;1
2833;-189;1
2833;-188;1
2833;-192;1
2833;-171;1
2833;-195;1
2833;-172;1
2833;-177;1
2833;-164;1
2833;-166;1
2833;-198;1
2833;-188;1
2833;-193;1
2833;-187;1
2833;-194;1
2833;-181;1
2833;-191;1
2833;-215;1
2833;-208;1
2833;-223;1
2833;-232;1
2885;-217;1
2885;-230;1
2885;-244;1
2885;-238;1
2885;-243;1
2885;-251;1
2885;-226;1
2885;-231;1
2885;-257;1
2885;-242;1
2885;-252;1
2885;-257;1
2885;-248;1
2885;-263;1
2885;-268;1
2885;-249;1
2885;-282;1
2885;-272;1
2885;-300;1
2885;-284;1
2885;-311;1
2885;-297;1
2885;-315;1
2885;-327;1
2885;-316;1
2885;-338;1
2885;-322;1
2885;-344;1
2885;-358;1
2885;-348;1
2885;-348;1
2885;-379;1
2885;-384;1
2885;-394;1
2885;-389;1
2885;-407;1
2885;-405;1
2885;-407;1
2885;-430;1
2885;-414;1
2885;-435;1
2885;-448;1
2885;-443;1
2885;-453;1
2885;-477;1
2885;-457;1
2885;-476;1
2885;-500;1
2938;-476;1
2938;-491;1
2938;-512;1
2938;-506;1
2938;-524;1
2938;-507;1
2938;-547;1
2938;-547;1
2938;-547;1
2938;-547;1
2938;-547;1
2938;-547;1
2938;-547;1
2938;-547;1
2938;-547;1
2938;-547;1
2938;-547;1
2938;-547;1
2938;-547;1
2938;-553;1
2938;-563;1
2938;-524;1
2938;-519;1
2938;-488;1
2938;-485;1
2938;-520;1
2938;-542;1
2938;-536;1
2938;-537;1
2938;-548;1
2938;-552;1
2938;-557;1
2938;-549;1
2938;-556;1
2938;-548;1
2938;-559;1
2938;-550;1
2938;-556;1
2938;-574;1
2938;-551;1
2938;-567;1
2938;-594;1
2938;-589;1
2938;-607;1
2938;-626;1
2938;-603;1
2938;-636;1
2938;-627;1
2938;-651;1
2938;-649;1
2938;-689;1
2938;-683;1
2938;-715;1
2938;-709;1
2938;-729;1
2938;-752;1
2938;-786;1
2938;-787;1
2938;-821;1
2938;-832;1
2994;-877;1
2994;-859;1
2994;-854;1
2994;-738;1
2994;-675;1
2994;-688;1
2994;-693;1
2994;-638;1
2994;-625;1
2994;-573;1
2994;-561;1
2994;-544;1
2994;-472;1
2994;-405;1
2994;-384;1
2994;-362;1
2994;-405;1
2994;-513;1
2994;-484;1
2994;-492;1
2994;-536;1
2994;-493;1
2994;-586;1
2994;-619;1
2994;-616;1
2994;-641;1
2994;-659;1
2994;-644;1
2994;-678;1
2994;-668;1
2994;-694;1
2994;-709;1
2994;-716;1
2994;-756;1
2994;-703;1
2994;-699;1
2994;-679;1
2994;-630;1
2994;-725;1
2994;-703;1
2994;-718;1
2994;-695;1
2994;-721;1
2994;-708;1
2994;-728;1
2994;-715;1
2994;-726;1
2994;-727;1
2994;-715;1
2994;-783;1
2994;-743;1
2994;-711;1
2994;-718;1
2994;-621;1
3045;-683;1
3045;-662;1
3045;-655;1
3045;-627;1
3045;-625;1
3045;-631;1
3045;-608;1
3045;-599;1
3045;-610;1
3045;-596;1
3045;-619;1
3045;-667;1
3045;-607;1
3045;-604;1
3045;-617;1
3045;-524;1
3045;-626;1
3045;-612;1
3045;-622;1
3045;-632;1
3045;-638;1
3045;-618;1
3045;-633;1
3045;-610;1
3045;-605;1
3045;-597;1
3045;-608;1
3045;-651;1
3045;-706;1
3045;-632;1
3045;-630;1
3045;-648;1
3045;-658;1
3045;-632;1
3045;-627;1
3045;-642;1
3045;-615;1
3045;-633;1
3045;-616;1
3045;-616;1
3045;-619;1
3045;-626;1
3045;-610;1
3045;-595;1
3045;-612;1
3045;-601;1
3045;-588;1
3045;-605;1
3045;-590;1
3045;-585;1
3045;-597;1
3045;-567;1
3045;-589;1
3045;-567;1
3109;-589;1
3109;-574;1
3109;-599;1
3109;-594;1
3109;-609;1
3109;-615;1
3109;-594;1
3109;-597;1
3109;-609;1
3109;-595;1
3109;-613;1
3109;-590;1
3109;-593;1
3109;-587;1
3109;-595;1
3109;-562;1
3109;-567;1
3109;-536;1
3109;-529;1
3109;-522;1
3109;-542;1
3109;-543;1
3109;-550;1
3109;-514;1
3109;-521;1
3109;-525;1
3109;-543;1
3109;-524;1
3109;-538;1
3109;-556;1
3109;-543;1
3109;-544;1
3109;-550;1
3109;-525;1
3109;-542;1
3109;-533;1
3109;-556;1
3109;-542;1
3109;-551;1
3109;-535;1
3109;-552;1
3109;-542;1
3109;-548;1
3109;-546;1
3109;-554;1
3109;-538;1
3109;-558;1
3109;-537;1
3109;-558;1
3109;-551;1
3109;-563;1
3109;-540;1
3109;-550;1
3109;-557;1
3160;-535;1
3160;-553;1
3160;-559;1
3160;-543;1
3160;-562;1
3160;-539;1
3160;-558;1
3160;-539;1
3160;-559;1
3160;-540;1
3160;-554;1
3160;-568;1
3160;-547;1
3160;-569;1
3160;-553;1
3160;-562;1
3160;-561;1
3160;-568;1
3160;-562;1
3160;-555;1
3160;-572;1
3160;-549;1
3160;-570;1
3160;-563;1
3160;-571;1
3160;-571;1
3160;-587;1
3160;-571;1
3160;-587;1
3160;-573;1
3160;-586;1
3160;-587;1
3160;-596;1
3160;-570;1
3160;-584;1
3160;-564;1
3160;-565;1
3160;-578;1
3160;-584;1
3160;-560;1
3160;-576;1
3160;-559;1
3160;-576;1
3160;-576;1
3160;-593;1
3160;-582;1
3160;-604;1
3160;-591;1
3160;-605;1
3160;-606;1
3160;-624;1
3160;-600;1
3160;-616;1
3160;-634;1
3160;-623;1
3160;-626;1
3160;-615;1
3160;-635;1
3160;-627;1
3160;-625;1
3212;-631;1
3212;-635;1
3212;-657;1
3212;-628;1
3212;-654;1
3212;-648;1
3212;-655;1
3212;-650;1
3212;-667;1
3212;-648;1
3212;-662;1
3212;-673;1
3212;-660;1
3212;-666;1
3212;-660;1
3212;-615;1
3212;-629;1
3212;-608;1
3212;-636;1
3212;-618;1
3212;-629;1
3212;-614;1
3212;-629;1
3212;-607;1
3212;-620;1
3212;-579;1
3212;-595;1
3212;-567;1
3212;-585;1
3212;-563;1
3212;-576;1
3212;-549;1
3212;-562;1
3212;-506;1
3212;-495;1
3212;-467;1
3212;-486;1
3212;-484;1
3212;-473;1
3212;-442;1
3212;-456;1
3212;-446;1
3263;-437;1
3263;-414;1
3263;-426;1
3263;-423;1
3263;-418;1
3263;-403;1
3263;-394;1
3263;-398;1
3263;-348;1
3263;-252;1
3263;-236;1
3263;-202;1
3263;-220;1
3263;-219;1
3263;-220;1
3263;-198;1
3263;-228;1
3263;-217;1
3263;-197;1
3263;-204;1
3263;-230;1
3263;-218;1
3263;-215;1
3263;-220;1
3263;-208;1
3263;-235;1
3263;-240;1
3263;-227;1
3263;-258;1
3263;-267;1
3263;-285;1
3263;-236;1
3263;-217;1
3263;-205;1
3263;-227;1
3263;-192;1
3263;-187;1
3263;-177;1
3263;-216;1
3263;-207;1
3263;-202;1
3263;-223;1
3263;-241;1
3263;-262;1
3263;-280;1
3263;-259;1
3263;-299;1
3263;-321;1
3263;-349;1
3263;-328;1
3263;-348;1
3263;-355;1
3263;-392;1
3263;-363;1
3313;-361;1
3313;-367;1
3313;-407;1
3313;-388;1
3313;-368;1
3313;-364;1
3313;-360;1
3313;-384;1
3313;-378;1
3313;-343;1
3313;-375;1
3313;-383;1
3313;-391;1
3313;-374;1
3313;-375;1
3313;-362;1
3313;-385;1
3313;-339;1
3313;-330;1
3313;-338;1
3313;-362;1
3313;-313;1
3313;-279;1
3313;-276;1
3313;-255;1
3313;-246;1
3313;-211;1
3313;-195;1
3313;-193;1
3313;-218;1
3313;-195;1
3313;-168;1
3313;-173;1
3313;-149;1
3313;-140;1
3313;-118;1
3313;-80;1
3313;-79;1
3313;-104;1
3313;-57;1
3313;-52;1
3313;-37;1
3313;-59;1
3313;-30;1
3313;-26;1
3313;-5;1
3313;-32;1
3313;-56;1
3369;-21;1
3369;-21;1
3369;-29;1
3369;-26;1
3369;-29;1
3369;6;1
3369;-21;1
3369;53;1
3369;48;1
3369;74;1
3369;54;1
3369;56;1
3369;29;1
3369;7;1
3369;-8;1
3369;0;1
3369;-28;1
3369;-47;1
3369;-32;1
3369;-61;1
3369;-82;1
3369;-99;1
3369;-118;1
3369;-126;1
3369;-151;1
3369;-178;1
3369;-200;1
3369;-178;1
3369;-172;1
3369;-159;1
3369;-178;1
3369;-193;1
3369;-197;1
3369;-155;1
3369;-152;1
3369;-118;1
3369;-106;1
3369;-110;1
3369;-86;1
3369;-29;1
3369;-49;1
3369;-35;1
3369;-59;1
3369;-64;1
3369;-102;1
3369;-99;1
3369;-129;1
3369;-95;1
3369;-96;1
3369;-90;1
3369;-89;1
3369;-80;1
3369;-89;1
3369;-95;1
3423;-73;1
3423;-92;1
3423;-79;1
3423;-82;1
3423;-104;1
3423;-82;1
3423;-96;1
3423;-88;1
3423;-102;1
3423;-72;1
3423;-64;1
3423;-56;1
3423;-67;1
3423;-106;1
3423;-149;1
3423;-128;1
3423;-155;1
3423;-206;1
3423;-211;1
3423;-234;1
3423;-267;1
3423;-232;1
3423;-246;1
3423;-268;1
3423;-253;1
3423;-294;1
3423;-339;1
3423;-355;1
3423;-368;1
3423;-410;1
3423;-435;1
3423;-479;1
3423;-520;1
3423;-508;1
3423;-517;1
3423;-510;1
3423;-488;1
3423;-503;1
3423;-493;1
3423;-447;1
3423;-456;1
3423;-477;1
3423;-462;1
3423;-492;1
3423;-488;1
3423;-513;1
3423;-518;1
3423;-502;1
3423;-500;1
3423;-481;1
3423;-477;1
3423;-459;1
3423;-464;1
3423;-463;1
3473;-414;1
3473;-374;1
3473;-362;1
3473;-341;1
3473;-341;1
3473;-350;1
3473;-358;1
3473;-359;1
3473;-376;1
3473;-351;1
3473;-382;1
3473;-365;1
3473;-379;1
3473;-389;1
3473;-426;1
3473;-421;1
3473;-442;1
3473;-430;1
3473;-458;1
3473;-462;1
3473;-503;1
3473;-504;1
3473;-550;1
3473;-551;1
3473;-580;1
3473;-576;1
3473;-585;1
3473;-576;1
3473;-598;1
3473;-626;1
3473;-618;1
3473;-642;1
3473;-677;1
3473;-667;1
3473;-706;1
3473;-711;1
3473;-731;1
3473;-739;1
3473;-780;1
3473;-781;1
3473;-804;1
3473;-840;1
3473;-848;1
3473;-864;1
3473;-891;1
3473;-878;1
3473;-914;1
3473;-919;1
3529;-947;1
3529;-888;1
3529;-847;1
3529;-895;1
3529;-940;1
3529;-944;1
3529;-964;1
3529;-1078;1
3529;-1028;1
3529;-1005;1
3529;-1032;1
3529;-937;1
3529;-1032;1
3529;-1043;1
3529;-1058;1
3529;-1054;1
3529;-1080;1
3529;-1073;1
3529;-1102;1
3529;-1089;1
3529;-1107;1
3529;-1083;1
3529;-1088;1
3529;-1158;1
3529;-1111;1
3529;-1074;1
3529;-1080;1
3529;-984;1
3529;-1072;1
3529;-1051;1
3529;-1043;1
3529;-1036;1
3529;-1027;1
3529;-1016;1
3529;-1001;1
3529;-1003;1
3529;-994;1
3529;-998;1
3529;-1013;1
3529;-1052;1
3529;-1014;1
3529;-987;1
3529;-994;1
3529;-918;1
3529;-1006;1
3529;-984;1
3529;-998;1
3529;-1005;1
3529;-972;1
3529;-973;1
3529;-974;1
3529;-942;1
3529;-938;1
3529;-932;1
3580;-913;1
3580;-978;1
3580;-908;1
3580;-858;1
3580;-846;1
3580;-774;1
3580;-827;1
3580;-823;1
3580;-818;1
3580;-783;1
3580;-779;1
3580;-743;1
3580;-739;1
3580;-692;1
3580;-691;1
3580;-656;1
3580;-627;1
3580;-676;1
3580;-590;1
3580;-545;1
3580;-530;1
3580;-409;1
3580;-473;1
3580;-424;1
3580;-408;1
3580;-378;1
3580;-481;1
3580;-430;1
3580;-393;1
3580;-350;1
3580;-330;1
3580;-283;1
3580;-266;1
3580;-225;1
3580;-218;1
3580;-169;1
3580;-167;1
3580;-134;1
3580;-143;1
3580;-118;1
3580;-135;1
3580;-115;1
3580;-135;1
3580;-118;1
3580;-44;1
3580;-30;1
3580;-101;1
3580;-115;1
3636;-169;1
3636;-287;1
3636;-268;1
3636;-272;1
3636;-308;1
3636;-284;1
3636;-369;1
3636;-414;1
3636;-426;1
3636;-488;1
3636;-531;1
3636;-564;1
3636;-562;1
3636;-585;1
3636;-620;1
3636;-614;1
3636;-629;1
3636;-722;1
3636;-642;1
3636;-650;1
3636;-665;1
3636;-572;1
3636;-652;1
3636;-601;1
3636;-595;1
3636;-590;1
3636;-632;1
3636;-661;1
3636;-723;1
3636;-761;1
3636;-839;1
3636;-874;1
3636;-934;1
3636;-1030;1
3636;-1024;1
3636;-1016;1
3636;-1055;1
3636;-1012;1
3636;-1150;1
3636;-1157;1
3636;-1206;1
3636;-1223;1
3636;-1253;1
3636;-1266;1
3636;-1288;1
3636;-1276;1
3636;-1300;1
3636;-1311;1
3636;-1321;1
3636;-1370;1
3636;-1327;1
3636;-1279;1
3636;-1298;1
3636;-1232;1
3636;-1289;1
3636;-1316;1
3636;-1329;1
3636;-1322;1
3636;-1341;1
3636;-1315;1
3686;-1316;1
3686;-1305;1
3686;-1305;1
3686;-1260;1
3686;-1246;1
3686;-1287;1
3686;-1215;1
3686;-1190;1
3686;-1173;1
3686;-1035;1
3686;-1100;1
3686;-1092;1
3686;-1066;1
3686;-1047;1
3686;-1027;1
3686;-1005;1
3686;-1012;1
3686;-1025;1
3686;-987;1
3686;-975;1
3686;-985;1
3686;-1050;1
3686;-999;1
3686;-949;1
3686;-951;1
3686;-861;1
3686;-963;1
3686;-935;1
3686;-937;1
3686;-909;1
3686;-934;1
3686;-922;1
3686;-937;1
3686;-890;1
3686;-901;1
3686;-912;1
3686;-915;1
3686;-979;1
3686;-917;1
3686;-874;1
3686;-896;1
3686;-812;1
3686;-881;1
3686;-852;1
3686;-856;1
3686;-830;1
3686;-832;1
3686;-811;1
3742;-772;1
3742;-778;1
3742;-790;1
3742;-764;1
3742;-735;1
3742;-805;1
3742;-750;1
3742;-750;1
3742;-760;1
3742;-657;1
3742;-753;1
3742;-727;1
3742;-748;1
3742;-726;1
3742;-725;1
3742;-705;1
3742;-722;1
3742;-736;1
3742;-712;1
3742;-689;1
3742;-696;1
3742;-750;1
3742;-785;1
3742;-685;1
3742;-727;1
3742;-729;1
3742;-766;1
3742;-735;1
3742;-727;1
3742;-701;1
3742;-722;1
3742;-726;1
3742;-703;1
3742;-677;1
3742;-675;1
3742;-685;1
3742;-651;1
3742;-636;1
3742;-638;1
3742;-619;1
3742;-627;1
3742;-569;1
3742;-561;1
3742;-573;1
3742;-600;1
3742;-577;1
3742;-589;1
3742;-549;1
3742;-584;1
3742;-576;1
3742;-577;1
3742;-538;1
3742;-547;1
3742;-562;1
3803;-539;1
3803;-523;1
3803;-535;1
3803;-530;1
3803;-540;1
3803;-533;1
3803;-503;1
3803;-513;1
3803;-555;1
3803;-545;1
3803;-556;1
3803;-546;1
3803;-580;1
3803;-580;1
3803;-598;1
3803;-590;1
3803;-607;1
3803;-616;1
3803;-601;1
3803;-596;1
3803;-621;1
3803;-615;1
3803;-603;1
3803;-599;1
3803;-584;1
3803;-600;1
3803;-616;1
3803;-588;1
3803;-612;1
3803;-608;1
3803;-637;1
3803;-620;1
3803;-637;1
3803;-641;1
3803;-674;1
3803;-646;1
3803;-650;1
3803;-662;1
3803;-692;1
3803;-657;1
3803;-658;1
3803;-637;1
3803;-652;1
3803;-644;1
3803;-643;1
3803;-615;1
3803;-631;1
3803;-613;1
3803;-603;1
3803;-579;1
3803;-622;1
3803;-611;1
3803;-622;1
3803;-596;1
3803;-619;1
3803;-603;1
3803;-609;1
3803;-567;1
3803;-581;1
3803;-571;1
3857;-544;1
3857;-515;1
3857;-503;1
3857;-474;1
3857;-479;1
3857;-449;1
3857;-449;1
3857;-432;1
3857;-412;1
3857;-379;1
3857;-398;1
3857;-373;1
3857;-387;1
3857;-356;1
3857;-359;1
3857;-342;1
3857;-358;1
3857;-322;1
3857;-310;1
3857;-279;1
3857;-278;1
3857;-254;1
3857;-254;1
3857;-202;1
3857;-201;1
3857;-198;1
3857;-201;1
3857;-170;1
3857;-172;1
3857;-152;1
3857;-145;1
3857;-124;1
3857;-119;1
3857;-81;1
3857;-82;1
3857;-76;1
3857;-69;1
3857;-32;1
3857;-42;1
3857;-5;1
3857;2;1
3857;8;1
3857;25;1
3857;24;1
3857;12;1
3857;38;1
3857;29;1
3857;58;1
3857;54;1
3857;83;1
3857;81;1
3857;82;1
3857;62;1
3857;89;1
3907;72;1
3907;52;1
3907;35;1
3907;51;1
3907;42;1
3907;8;1
3907;0;1
3907;-15;1
3907;-34;1
3907;-33;1
3907;-69;1
3907;-54;1
3907;-77;1
3907;-95;1
3907;-132;1
3907;-120;1
3907;-157;1
3907;-159;1
3907;-193;1
3907;-181;1
3907;-230;1
3907;-228;1
3907;-241;1
3907;-259;1
3907;-250;1
3907;-306;1
3907;-288;1
3907;-295;1
3907;-322;1
3907;-354;1
3907;-345;1
3907;-352;1
3907;-404;1
3907;-415;1
3907;-445;1
3907;-474;1
3907;-493;1
3907;-511;1
3907;-532;1
3907;-532;1
3907;-566;1
3907;-542;1
3907;-546;1
3907;-573;1
3907;-597;1
3907;-564;1
3907;-571;1
3907;-608;1
3957;-603;1
3957;-609;1
3957;-648;1
3957;-644;1
3957;-671;1
3957;-673;1
3957;-721;1
3957;-715;1
3957;-726;1
3957;-703;1
3957;-739;1
3957;-720;1
3957;-708;1
3957;-681;1
3957;-709;1
3957;-663;1
3957;-663;1
3957;-665;1
3957;-678;1
3957;-636;1
3957;-650;1
3957;-636;1
3957;-661;1
3957;-629;1
3957;-637;1
3957;-658;1
3957;-638;1
3957;-602;1
3957;-627;1
3957;-603;1
3957;-595;1
3957;-572;1
3957;-596;1
3957;-572;1
3957;-575;1
3957;-546;1
3957;-577;1
3957;-546;1
3957;-552;1
3957;-541;1
3957;-563;1
3957;-532;1
3957;-542;1
3957;-532;1
3957;-565;1
3957;-536;1
3957;-557;1
3957;-556;1
4013;-583;1
4013;-569;1
4013;-602;1
4013;-596;1
4013;-621;1
4013;-604;1
4013;-626;1
4013;-625;1
4013;-647;1
4013;-621;1
4013;-645;1
4013;-656;1
4013;-632;1
4013;-638;1
4013;-628;1
4013;-648;1
4013;-666;1
4013;-653;1
4013;-665;1
4013;-655;1
4013;-665;1
4013;-656;1
4013;-674;1
4013;-648;1
4013;-657;1
4013;-646;1
4013;-658;1
4013;-630;1
4013;-629;1
4013;-640;1
4013;-616;1
4013;-606;1
4013;-623;1
4013;-604;1
4013;-619;1
4013;-591;1
4013;-597;1
4013;-598;1
4013;-606;1
4013;-585;1
4013;-603;1
4013;-595;1
4013;-592;1
4013;-593;1
4013;-608;1
4013;-581;1
4013;-586;1
4013;-556;1
4013;-567;1
4013;-562;1
4013;-562;1
4013;-545;1
4013;-567;1
4013;-540;1
4067;-540;1
4067;-540;1
4067;-543;1
4067;-532;1
4067;-545;1
4067;-529;1
4067;-535;1
4067;-516;1
4067;-515;1
4067;-504;1
4067;-508;1
4067;-496;1
4067;-475;1
4067;-487;1
4067;-493;1
4067;-460;1
4067;-489;1
4067;-480;1
4067;-494;1
4067;-468;1
4067;-500;1
4067;-491;1
4067;-514;1
4067;-490;1
4067;-519;1
4067;-502;1
4067;-528;1
4067;-496;1
4067;-518;1
4067;-540;1
4067;-509;1
4067;-523;1
4067;-546;1
4067;-527;1
4067;-531;1
4067;-512;1
4067;-546;1
4067;-532;1
4067;-539;1
4067;-521;1
4067;-551;1
4067;-564;1
4067;-552;1
4067;-539;1
4067;-571;1
4067;-566;1
4067;-554;1
4067;-551;1
4067;-557;1
4067;-555;1
4067;-560;1
4067;-531;1
4067;-561;1
4067;-545;1
4119;-535;1
4119;-518;1
4119;-544;1
4119;-533;1
4119;-537;1
4119;-510;1
4119;-535;1
4119;-516;1
4119;-525;1
4119;-496;1
4119;-508;1
4119;-496;1
4119;-499;1
4119;-490;1
4119;-502;1
4119;-488;1
4119;-501;1
4119;-497;1
4119;-461;1
4119;-484;1
4119;-496;1
4119;-463;1
4119;-469;1
4119;-485;1
4119;-466;1
4119;-482;1
4119;-452;1
4119;-466;1
4119;-478;1
4119;-480;1
4119;-454;1
4119;-458;1
4119;-466;1
4119;-446;1
4119;-437;1
4119;-442;1
4119;-434;1
4119;-443;1
4119;-447;1
4119;-428;1
4119;-450;1
4119;-440;1
4119;-436;1
4119;-438;1
4119;-453;1
4119;-442;1
4119;-448;1
4119;-431;1
4171;-441;1
4171;-452;1
4171;-457;1
4171;-422;1
4171;-440;1
4171;-429;1
4171;-441;1
4171;-410;1
4171;-430;1
4171;-410;1
4171;-419;1
4171;-422;1
4171;-400;1
4171;-414;1
4171;-430;1
4171;-402;1
4171;-424;1
4171;-412;1
4171;-435;1
4171;-419;1
4171;-437;1
4171;-421;1
4171;-448;1
4171;-436;1
4171;-434;1
4171;-431;1
4171;-457;1
4171;-449;1
4171;-434;1
4171;-439;1
4171;-446;1
4171;-445;1
4171;-449;1
4171;-434;1
4171;-463;1
4171;-443;1
4171;-443;1
4171;-448;1
4171;-473;1
4171;-458;1
4171;-464;1
4171;-482;1
4171;-467;1
4171;-482;1
4171;-490;1
4171;-472;1
4171;-491;1
4171;-511;1
4171;-481;1
4171;-483;1
4171;-511;1
4171;-495;1
4171;-515;1
4171;-492;1
4223;-503;1
4223;-517;1
4223;-522;1
4223;-500;1
4223;-523;1
4223;-515;1
4223;-522;1
4223;-500;1
4223;-521;1
4223;-510;1
4223;-521;1
4223;-485;1
4223;-499;1
4223;-506;1
4223;-518;1
4223;-490;1
4223;-499;1
4223;-520;1
4223;-512;1
4223;-515;1
4223;-533;1
4223;-541;1
4223;-571;1
4223;-548;1
4223;-564;1
4223;-596;1
4223;-620;1
4223;-606;1
4223;-628;1
4223;-668;1
4223;-673;1
4223;-694;1
4223;-721;1
4223;-721;1
4223;-762;1
4223;-752;1
4223;-729;1
4223;-704;1
4223;-717;1
4223;-693;1
4223;-687;1
4223;-619;1
4223;-594;1
4223;-535;1
4223;-526;1
4223;-485;1
4223;-480;1
4223;-450;1
4276;-383;1
4276;-352;1
4276;-360;1
4276;-372;1
4276;-402;1
4276;-433;1
4276;-444;1
4276;-463;1
4276;-490;1
4276;-481;1
4276;-499;1
4276;-538;1
4276;-556;1
4276;-567;1
4276;-591;1
4276;-576;1
4276;-605;1
4276;-614;1
4276;-640;1
4276;-623;1
4276;-638;1
4276;-606;1
4276;-621;1
4276;-598;1
4276;-610;1
4276;-607;1
4276;-619;1
4276;-599;1
4276;-621;1
4276;-594;1
4276;-613;1
4276;-617;1
4276;-632;1
4276;-607;1
4276;-629;1
4276;-610;1
4276;-629;1
4276;-615;1
4276;-624;1
4276;-588;1
4276;-591;1
4276;-559;1
4276;-570;1
4276;-548;1
4276;-564;1
4276;-547;1
4276;-568;1
4276;-571;1
4276;-580;1
4276;-596;1
4276;-618;1
4276;-638;1
4276;-676;1
4276;-678;1
4329;-696;1
4329;-699;1
4329;-715;1
4329;-695;1
4329;-699;1
4329;-673;1
4329;-689;1
4329;-675;1
4329;-687;1
4329;-660;1
4329;-667;1
4329;-676;1
4329;-645;1
4329;-647;1
4329;-651;1
4329;-623;1
4329;-639;1
4329;-620;1
4329;-626;1
4329;-622;1
4329;-629;1
4329;-617;1
4329;-638;1
4329;-611;1
4329;-628;1
4329;-617;1
4329;-637;1
4329;-621;1
4329;-629;1
4329;-640;1
4329;-649;1
4329;-626;1
4329;-644;1
4329;-634;1
4329;-649;1
4329;-633;1
4329;-645;1
4329;-671;1
4329;-660;1
4329;-648;1
4329;-659;1
4329;-689;1
4329;-681;1
4329;-676;1
4329;-698;1
4329;-694;1
4329;-710;1
4329;-688;1
4384;-697;1
4384;-688;1
4384;-715;1
4384;-682;1
4384;-684;1
4384;-698;1
4384;-672;1
4384;-683;1
4384;-684;1
4384;-660;1
4384;-678;1
4384;-642;1
4384;-636;1
4384;-644;1
4384;-650;1
4384;-614;1
4384;-609;1
4384;-614;1
4384;-589;1
4384;-595;1
4384;-586;1
4384;-548;1
4384;-556;1
4384;-554;1
4384;-562;1
4384;-532;1
4384;-551;1
4384;-545;1
4384;-542;1
4384;-537;1
4384;-538;1
4384;-545;1
4384;-574;1
4384;-553;1
4384;-555;1
4384;-575;1
4384;-573;1
4384;-565;1
4384;-576;1
4384;-566;1
4384;-576;1
4384;-594;1
4384;-568;1
4384;-583;1
4384;-614;1
4384;-589;1
4384;-602;1
4384;-585;1
4384;-604;1
4384;-619;1
4384;-640;1
4384;-613;1
4384;-642;1
4384;-631;1
4384;-645;1
4384;-639;1
4384;-645;1
4384;-634;1
4384;-652;1
4384;-655;1
4437;-627;1
4437;-634;1
4437;-653;1
4437;-630;1
4437;-629;1
4437;-639;1
4437;-632;1
4437;-651;1
4437;-624;1
4437;-630;1
4437;-637;1
4437;-640;1
4437;-630;1
4437;-627;1
4437;-626;1
4437;-635;1
4437;-623;1
4437;-627;1
4437;-603;1
4437;-598;1
4437;-621;1
4437;-592;1
4437;-599;1
4437;-582;1
4437;-591;1
4437;-585;1
4437;-588;1
4437;-556;1
4437;-592;1
4437;-575;1
4437;-588;1
4437;-561;1
4437;-584;1
4437;-577;1
4437;-590;1
4437;-554;1
4437;-565;1
4437;-573;1
4437;-582;1
4437;-544;1
4437;-541;1
4437;-548;1
4437;-531;1
4437;-527;1
4437;-524;1
4437;-503;1
4437;-516;1
4437;-515;1
4498;-481;1
4498;-503;1
4498;-489;1
4498;-511;1
4498;-492;1
4498;-484;1
4498;-491;1
4498;-475;1
4498;-486;1
4498;-452;1
4498;-445;1
4498;-452;1
4498;-430;1
4498;-419;1
4498;-427;1
4498;-402;1
4498;-408;1
4498;-387;1
4498;-390;1
4498;-379;1
4498;-405;1
4498;-388;1
4498;-401;1
4498;-377;1
4498;-388;1
4498;-390;1
4498;-382;1
4498;-360;1
4498;-380;1
4498;-345;1
4498;-350;1
4498;-310;1
4498;-323;1
4498;-310;1
4498;-304;1
4498;-302;1
4498;-282;1
4498;-308;1
4498;-313;1
4498;-299;1
4498;-335;1
4498;-373;1
4498;-355;1
4498;-377;1
4498;-387;1
4498;-427;1
4498;-395;1
4498;-394;1
4498;-400;1
4498;-400;1
4498;-406;1
4498;-379;1
4498;-410;1
4498;-416;1
4498;-405;1
4498;-412;1
4498;-453;1
4498;-452;1
4498;-465;1
4498;-480;1
4550;-480;1
4550;-519;1
4550;-528;1
4550;-491;1
4550;-519;1
4550;-537;1
4550;-491;1
4550;-491;1
4550;-504;1
4550;-481;1
4550;-483;1
4550;-484;1
4550;-474;1
4550;-484;1
4550;-482;1
4550;-459;1
4550;-478;1
4550;-456;1
4550;-465;1
4550;-437;1
4550;-456;1
4550;-448;1
4550;-455;1
4550;-428;1
4550;-451;1
4550;-429;1
4550;-453;1
4550;-431;1
4550;-440;1
4550;-449;1
4550;-435;1
4550;-411;1
4550;-427;1
4550;-402;1
4550;-405;1
4550;-407;1
4550;-393;1
4550;-398;1
4550;-409;1
4550;-388;1
4550;-402;1
4550;-381;1
4550;-400;1
4550;-380;1
4550;-397;1
4550;-376;1
4550;-414;1
4550;-387;1
4550;-405;1
4550;-392;1
4550;-420;1
4550;-400;1
4550;-407;1
4550;-382;1
4601;-406;1
4601;-423;1
4601;-419;1
4601;-394;1
4601;-415;1
4601;-388;1
4601;-399;1
4601;-371;1
4601;-404;1
4601;-401;1
4601;-406;1
4601;-382;1
4601;-415;1
4601;-412;1
4601;-419;1
4601;-417;1
4601;-414;1
4601;-423;1
4601;-418;1
4601;-403;1
4601;-417;1
4601;-405;1
4601;-437;1
4601;-425;1
4601;-421;1
4601;-435;1
4601;-461;1
4601;-445;1
4601;-457;1
4601;-484;1
4601;-476;1
4601;-500;1
4601;-512;1
4601;-493;1
4601;-517;1
4601;-535;1
4601;-517;1
4601;-522;1
4601;-538;1
4601;-529;1
4601;-539;1
4601;-533;1
4654;-520;1
4654;-540;1
4654;-551;1
4654;-527;1
4654;-542;1
4654;-529;1
4654;-561;1
4654;-531;1
4654;-546;1
4654;-535;1
4654;-548;1
4654;-546;1
4654;-552;1
4654;-538;1
4654;-571;1
4654;-553;1
4654;-559;1
4654;-554;1
4654;-561;1
4654;-565;1
4654;-569;1
4654;-549;1
4654;-575;1
4654;-569;1
4654;-571;1
4654;-577;1
4654;-591;1
4654;-577;1
4654;-600;1
4654;-612;1
4654;-586;1
4654;-597;1
4654;-608;1
4654;-591;1
4654;-585;1
4654;-600;1
4654;-580;1
4654;-590;1
4654;-583;1
4654;-571;1
4654;-592;1
4654;-578;1
4654;-589;1
4654;-565;1
4654;-592;1
4654;-582;1
4654;-599;1
4654;-582;1
4654;-587;1
4654;-604;1
4654;-617;1
4654;-589;1
4654;-587;1
4654;-608;1
4654;-598;1
4654;-604;1
4654;-588;1
4654;-574;1
4654;-589;1
4654;-598;1
4710;-586;1
4710;-577;1
4710;-607;1
4710;-588;1
4710;-605;1
4710;-591;1
4710;-614;1
4710;-615;1
4710;-624;1
4710;-602;1
4710;-611;1
4710;-628;1
4710;-615;1
4710;-613;1
4710;-614;1
4710;-600;1
4710;-628;1
4710;-603;1
4710;-594;1
4710;-594;1
4710;-609;1
4710;-595;1
4710;-610;1
4710;-590;1
4710;-603;1
4710;-612;1
4710;-623;1
4710;-595;1
4710;-599;1
4710;-625;1
4710;-605;1
4710;-610;1
4710;-616;1
4710;-588;1
4710;-601;1
4710;-614;1
4710;-587;1
4710;-589;1
4710;-582;1
4710;-589;1
4710;-590;1
4710;-590;1
4710;-584;1
4710;-590;1
4710;-610;1
4710;-578;1
4710;-601;1
4710;-592;1
4710;-596;1
4710;-592;1
4710;-592;1
4710;-568;1
4710;-598;1
4710;-580;1
4761;-569;1
4761;-566;1
4761;-573;1
4761;-555;1
4761;-558;1
4761;-565;1
4761;-539;1
4761;-555;1
4761;-570;1
4761;-548;1
4761;-560;1
4761;-538;1
4761;-557;1
4761;-561;1
4761;-564;1
4761;-538;1
4761;-555;1
4761;-542;1
4761;-557;1
4761;-521;1
4761;-538;1
4761;-517;1
4761;-526;1
4761;-522;1
4761;-527;1
4761;-507;1
4761;-535;1
4761;-527;1
4761;-526;1
4761;-532;1
4761;-522;1
4761;-533;1
4761;-557;1
4761;-524;1
4761;-534;1
4761;-547;1
4761;-535;1
4761;-542;1
4761;-550;1
4761;-521;1
4761;-538;1
4761;-549;1
4761;-532;1
4761;-535;1
4761;-543;1
4761;-528;1
4761;-544;1
4761;-534;1
4817;-552;1
4817;-528;1
4817;-555;1
4817;-540;1
4817;-560;1
4817;-539;1
4817;-556;1
4817;-554;1
4817;-565;1
4817;-545;1
4817;-556;1
4817;-578;1
4817;-554;1
4817;-563;1
4817;-566;1
4817;-546;1
4817;-566;1
4817;-542;1
4817;-562;1
4817;-542;1
4817;-568;1
4817;-550;1
4817;-564;1
4817;-565;1
4817;-559;1
4817;-560;1
4817;-578;1
4817;-556;1
4817;-561;1
4817;-572;1
4817;-557;1
4817;-564;1
4817;-572;1
4817;-557;1
4817;-559;1
4817;-570;1
4817;-550;1
4817;-556;1
4817;-567;1
4817;-554;1
4817;-566;1
4817;-549;1
4817;-578;1
4817;-560;1
4817;-575;1
4817;-562;1
4817;-597;1
4817;-575;1
4817;-575;1
4817;-545;1
4817;-563;1
4817;-522;1
4817;-509;1
4817;-502;1
4868;-465;1
4868;-470;1
4868;-468;1
4868;-437;1
4868;-441;1
4868;-455;1
4868;-417;1
4868;-401;1
4868;-382;1
4868;-387;1
4868;-409;1
4868;-449;1
4868;-470;1
4868;-494;1
4868;-537;1
4868;-535;1
4868;-580;1
4868;-561;1
4868;-576;1
4868;-580;1
4868;-579;1
4868;-554;1
4868;-543;1
4868;-533;1
4868;-476;1
4868;-459;1
4868;-440;1
4868;-370;1
4868;-350;1
4868;-310;1
4868;-310;1
4868;-296;1
4868;-308;1
4868;-274;1
4868;-294;1
4868;-292;1
4868;-318;1
4868;-328;1
4868;-353;1
4868;-366;1
4868;-397;1
4868;-374;1
4868;-372;1
4868;-352;1
4868;-372;1
4868;-341;1
4868;-345;1
4868;-365;1
4868;-361;1
4868;-369;1
4868;-355;1
4868;-366;1
4868;-379;1
4868;-365;1
4918;-365;1
4918;-359;1
4918;-367;1
4918;-346;1
4918;-351;1
4918;-325;1
4918;-340;1
4918;-367;1
4918;-368;1
4918;-336;1
4918;-364;1
4918;-333;1
4918;-322;1
4918;-286;1
4918;-284;1
4918;-249;1
4918;-248;1
4918;-253;1
4918;-245;1
4918;-286;1
4918;-323;1
4918;-319;1
4918;-362;1
4918;-393;1
4918;-454;1
4918;-462;1
4918;-499;1
4918;-517;1
4918;-558;1
4918;-541;1
4918;-553;1
4918;-549;1
4918;-590;1
4918;-568;1
4918;-571;1
4918;-580;1
4918;-575;1
4918;-596;1
4918;-565;1
4918;-526;1
4918;-503;1
4918;-516;1
4973;-478;1
4973;-445;1
4973;-413;1
4973;-352;1
4973;-326;1
4973;-288;1
4973;-277;1
4973;-252;1
4973;-213;1
4973;-157;1
4973;-159;1
4973;-159;1
4973;-198;1
4973;-222;1
4973;-257;1
4973;-253;1
4973;-287;1
4973;-279;1
4973;-293;1
4973;-306;1
4973;-334;1
4973;-340;1
4973;-382;1
4973;-372;1
4973;-390;1
4973;-394;1
4973;-431;1
4973;-429;1
4973;-449;1
4973;-434;1
4973;-466;1
4973;-455;1
4973;-479;1
4973;-462;1
4973;-481;1
4973;-483;1
4973;-483;1
4973;-483;1
4973;-474;1
4973;-495;1
4973;-490;1
4973;-508;1
4973;-497;1
4973;-501;1
4973;-531;1
4973;-520;1
4973;-549;1
4973;-533;1
4973;-543;1
4973;-560;1
4973;-581;1
4973;-561;1
4973;-566;1
4973;-584;1
5023;-578;1
5023;-594;1
5023;-601;1
5023;-591;1
5023;-628;1
5023;-614;1
5023;-642;1
5023;-634;1
5023;-682;1
5023;-679;1
5023;-707;1
5023;-701;1
5023;-731;1
5023;-758;1
5023;-775;1
5023;-749;1
5023;-782;1
5023;-769;1
5023;-767;1
5023;-760;1
5023;-765;1
5023;-747;1
5023;-772;1
5023;-745;1
5023;-742;1
5023;-741;1
5023;-760;1
5023;-745;1
5023;-748;1
5023;-763;1
5023;-769;1
5023;-776;1
5023;-787;1
5023;-771;1
5023;-797;1
5023;-794;1
5023;-811;1
5023;-783;1
5023;-795;1
5023;-783;1
5023;-794;1
5023;-763;1
5023;-775;1
5023;-758;1
5023;-778;1
5023;-755;1
5023;-756;1
5023;-778;1
5073;-762;1
5073;-772;1
5073;-779;1
5073;-768;1
5073;-799;1
5073;-819;1
5073;-801;1
5073;-807;1
5073;-826;1
5073;-812;1
5073;-832;1
5073;-800;1
5073;-804;1
5073;-822;1
5073;-828;1
5073;-788;1
5073;-796;1
5073;-794;1
5073;-799;1
5073;-794;1
5073;-783;1
5073;-789;1
5073;-820;1
5073;-810;1
5073;-811;1
5073;-799;1
5073;-810;1
5073;-794;1
5073;-788;1
5073;-779;1
5073;-760;1
5073;-749;1
5073;-767;1
5073;-732;1
5073;-726;1
5073;-714;1
5073;-724;1
5073;-727;1
5073;-729;1
5073;-709;1
5073;-729;1
5073;-763;1
5073;-742;1
5073;-755;1
5073;-783;1
5073;-777;1
5073;-805;1
5073;-782;1
5130;-799;1
5130;-779;1
5130;-794;1
5130;-782;1
5130;-794;1
5130;-792;1
5130;-800;1
5130;-800;1
5130;-800;1
5130;-800;1
5130;-800;1
5130;-800;1
5130;-800;1
5130;-800;1
5130;-800;1
5130;-800;1
5130;-800;1
5130;-800;1
5130;-800;1
5130;-795;1
5130;-795;1
5130;-776;1
5130;-788;1
5130;-804;1
5130;-786;1
5130;-769;1
5130;-764;1
5130;-736;1
5130;-748;1
5130;-729;1
5130;-731;1
5130;-696;1
5130;-712;1
5130;-692;1
5130;-706;1
5130;-710;1
5130;-687;1
5130;-694;1
5130;-710;1
5130;-691;1
5130;-713;1
5130;-700;1
5130;-701;1
5130;-698;1
5130;-708;1
5130;-689;1
5130;-697;1
5130;-703;1
5130;-674;1
5130;-677;1
5130;-683;1
5130;-657;1
5130;-666;1
5130;-676;1
5130;-660;1
5130;-679;1
5130;-658;1
5130;-675;1
5130;-680;1
5130;-681;1
5130;-684;1
5130;-691;1
5130;-684;1
5130;-678;1
5130;-687;1
5130;-695;1
5195;-679;1
5195;-664;1
5195;-667;1
5195;-648;1
5195;-648;1
5195;-649;1
5195;-623;1
5195;-622;1
5195;-625;1
5195;-603;1
5195;-622;1
5195;-611;1
5195;-566;1
5195;-566;1
5195;-566;1
5195;-566;1
5195;-566;1
5195;-566;1
5195;-566;1
5195;-566;1
5195;-566;1
5195;-566;1
5195;-566;1
5195;-566;1
5195;-566;1
5195;-566;1
5195;-566;1
5195;-566;1
5195;-566;1
5195;-566;1
5195;-566;1
5195;-541;1
5195;-549;1
5195;-530;1
5195;-537;1
5195;-531;1
5195;-545;1
5195;-513;1
5195;-521;1
5195;-513;1
5195;-507;1
5195;-491;1
5195;-486;1
5195;-467;1
5195;-468;1
5195;-441;1
5195;-452;1
5195;-432;1
5195;-429;1
5195;-406;1
5195;-410;1
5195;-393;1
5195;-414;1
5195;-391;1
5234;-401;1
5234;-377;1
5234;-395;1
5234;-381;1
5234;-402;1
5234;-394;1
5234;-357;1
5234;-358;1
5234;-354;1
5234;-337;1
5234;-366;1
5234;-378;1
5234;-308;1
5234;-308;1
5234;-308;1
5234;-308;1
5234;-308;1
5234;-308;1
5234;-308;1
5234;-308;1
5234;-308;1
5234;-308;1
5234;-308;1
5234;-308;1
5234;-308;1
5234;-329;1
5234;-335;1
5234;-308;1
5234;-316;1
5234;-321;1
5234;-331;1
5234;-314;1
5234;-327;1
5234;-293;1
5234;-309;1
5234;-303;1
5234;-283;1
5234;-300;1
5234;-292;1
5234;-302;1
5234;-299;1
5234;-279;1
5234;-279;1
5234;-269;1
5234;-294;1
5234;-281;1
5234;-284;1
5234;-316;1
5234;-319;1
5234;-339;1
5234;-366;1
5234;-347;1
5234;-379;1
5234;-373;1
5234;-394;1
5234;-382;1
5234;-410;1
5234;-401;1
5234;-427;1
5234;-412;1
5288;-431;1
5288;-414;1
5288;-433;1
5288;-423;1
5288;-443;1
5288;-456;1
5288;-436;1
5288;-451;1
5288;-465;1
5288;-450;1
5288;-460;1
5288;-460;1
5288;-478;1
5288;-462;1
5288;-478;1
5288;-455;1
5288;-462;1
5288;-482;1
5288;-490;1
5288;-485;1
5288;-516;1
5288;-514;1
5288;-534;1
5288;-551;1
5288;-537;1
5288;-538;1
5288;-550;1
5288;-526;1
5288;-528;1
5288;-551;1
5288;-526;1
5288;-510;1
5288;-513;1
5288;-476;1
5288;-482;1
5288;-457;1
5288;-459;1
5288;-443;1
5288;-454;1
5288;-423;1
5288;-432;1
5288;-407;1
5288;-416;1
5288;-408;1
5288;-420;1
5288;-392;1
5288;-408;1
5288;-426;1
5288;-413;1
5288;-420;1
5288;-436;1
5288;-417;1
5288;-434;1
5288;-448;1
5343;-436;1
5343;-456;1
5343;-472;1
5343;-470;1
5343;-479;1
5343;-484;1
5343;-488;1
5343;-490;1
5343;-508;1
5343;-490;1
5343;-512;1
5343;-488;1
5343;-499;1
5343;-486;1
5343;-504;1
5343;-487;1
5343;-498;1
5343;-498;1
5343;-517;1
5343;-516;1
5343;-524;1
5343;-508;1
5343;-536;1
5343;-506;1
5343;-505;1
5343;-494;1
5343;-524;1
5343;-500;1
5343;-502;1
5343;-516;1
5343;-506;1
5343;-518;1
5343;-521;1
5343;-518;1
5343;-549;1
5343;-527;1
5343;-527;1
5343;-536;1
5343;-544;1
5343;-501;1
5343;-504;1
5343;-475;1
5343;-500;1
5343;-471;1
5343;-480;1
5343;-463;1
5343;-499;1
5343;-496;1
5343;-497;1
5343;-507;1
5343;-529;1
5343;-514;1
5343;-519;1
5343;-554;1
5394;-545;1
5394;-546;1
5394;-554;1
5394;-527;1
5394;-537;1
5394;-518;1
5394;-488;1
5394;-494;1
5394;-510;1
5394;-474;1
5394;-491;1
5394;-485;1
5394;-504;1
5394;-521;1
5394;-526;1
5394;-504;1
5394;-537;1
5394;-517;1
5394;-541;1
5394;-527;1
5394;-551;1
5394;-536;1
5394;-561;1
5394;-572;1
5394;-546;1
5394;-539;1
5394;-551;1
5394;-533;1
5394;-544;1
5394;-555;1
5394;-536;1
5394;-554;1
5394;-529;1
5394;-509;1
5394;-530;1
5394;-522;1
5394;-506;1
5394;-485;1
5394;-484;1
5394;-468;1
5394;-473;1
5394;-476;1
5394;-449;1
5394;-444;1
5394;-461;1
5394;-422;1
5394;-437;1
5394;-418;1
5450;-416;1
5450;-409;1
5450;-418;1
5450;-402;1
5450;-425;1
5450;-401;1
5450;-391;1
5450;-404;1
5450;-432;1
5450;-400;1
5450;-411;1
5450;-423;1
5450;-403;1
5450;-418;1
5450;-411;1
5450;-373;1
5450;-397;1
5450;-374;1
5450;-354;1
5450;-327;1
5450;-337;1
5450;-321;1
5450;-326;1
5450;-332;1
5450;-361;1
5450;-358;1
5450;-393;1
5450;-397;1
5450;-383;1
5450;-375;1
5450;-359;1
5450;-353;1
5450;-384;1
5450;-366;1
5450;-393;1
5450;-387;1
5450;-388;1
5450;-408;1
5450;-435;1
5450;-411;1
5450;-449;1
5450;-438;1
5450;-449;1
5450;-437;1
5450;-435;1
5450;-414;1
5450;-438;1
5450;-414;1
5450;-418;1
5450;-422;1
5450;-431;1
5450;-410;1
5450;-415;1
5450;-421;1
5500;-405;1
5500;-410;1
5500;-420;1
5500;-403;1
5500;-416;1
5500;-389;1
5500;-408;1
5500;-390;1
5500;-409;1
5500;-388;1
5500;-390;1
5500;-392;1
5500;-411;1
5500;-390;1
5500;-406;1
5500;-399;1
5500;-390;1
5500;-392;1
5500;-376;1
5500;-376;1
5500;-376;1
5500;-376;1
5500;-376;1
5500;-376;1
5500;-376;1
5500;-376;1
5500;-376;1
5500;-376;1
5500;-376;1
5500;-376;1
5500;-376;1
5500;-380;1
5500;-395;1
5500;-368;1
5500;-390;1
5500;-375;1
5500;-385;1
5500;-398;1
5500;-413;1
5500;-392;1
5500;-433;1
5500;-419;1
5500;-436;1
5500;-439;1
5500;-453;1
5500;-445;1
5500;-471;1
5500;-457;1
5500;-482;1
5500;-473;1
5500;-497;1
5500;-478;1
5500;-490;1
5500;-514;1
5554;-494;1
5554;-502;1
5554;-518;1
5554;-506;1
5554;-511;1
5554;-525;1
5554;-536;1
5554;-516;1
5554;-533;1
5554;-512;1
5554;-527;1
5554;-517;1
5554;-502;1
5554;-497;1
5554;-505;1
5554;-480;1
5554;-475;1
5554;-490;1
5554;-474;1
5554;-476;1
5554;-489;1
5554;-470;1
5554;-476;1
5554;-489;1
5554;-470;1
5554;-477;1
5554;-476;1
5554;-443;1
5554;-448;1
5554;-452;1
5554;-425;1
5554;-428;1
5554;-428;1
5554;-412;1
5554;-414;1
5554;-409;1
5554;-385;1
5554;-397;1
5554;-407;1
5554;-384;1
5554;-391;1
5554;-418;1
5554;-458;1
5554;-458;1
5554;-458;1
5554;-458;1
5554;-458;1
5554;-458;1
5554;-458;1
5554;-458;1
5554;-458;1
5554;-458;1
5554;-458;1
5554;-458;1
5554;-458;1
5554;-456;1
5554;-458;1
5554;-472;1
5554;-482;1
5554;-466;1
5604;-468;1
5604;-462;1
5604;-480;1
5604;-466;1
5604;-470;1
5604;-490;1
5604;-496;1
5604;-499;1
5604;-510;1
5604;-487;1
5604;-522;1
5604;-512;1
5604;-521;1
5604;-523;1
5604;-534;1
5604;-526;1
5604;-553;1
5604;-533;1
5604;-539;1
5604;-546;1
5604;-568;1
5604;-548;1
5604;-562;1
5604;-546;1
5604;-555;1
5604;-564;1
5604;-591;1
5604;-576;1
5604;-593;1
5604;-580;1
5604;-603;1
5604;-588;1
5604;-611;1
5604;-592;1
5604;-607;1
5604;-602;1
5604;-606;1
5604;-597;1
5604;-623;1
5604;-611;1
5604;-645;1
5604;-636;1
5604;-643;1
5604;-641;1
5604;-653;1
5604;-640;1
5604;-667;1
5604;-649;1
5659;-654;1
5659;-669;1
5659;-688;1
5659;-671;1
5659;-705;1
5659;-687;1
5659;-700;1
5659;-688;1
5659;-698;1
5659;-674;1
5659;-686;1
5659;-709;1
5659;-702;1
5659;-697;1
5659;-710;1
5659;-682;1
5659;-706;1
5659;-684;1
5659;-684;1
5659;-679;1
5659;-696;1
5659;-685;1
5659;-695;1
5659;-707;1
5659;-682;1
5659;-714;1
5659;-685;1
5659;-691;1
5659;-694;1
5659;-706;1
5659;-706;1
5659;-714;1
5659;-691;1
5659;-686;1
5659;-695;1
5659;-705;1
5659;-700;1
5659;-692;1
5659;-713;1
5659;-694;1
5659;-720;1
5659;-709;1
5659;-720;1
5659;-704;1
5659;-738;1
5659;-719;1
5659;-738;1
5659;-757;1
5659;-747;1
5659;-766;1
5659;-797;1
5659;-790;1
5659;-824;1
5659;-823;1
5710;-864;1
5710;-889;1
5710;-911;1
5710;-910;1
5710;-952;1
5710;-933;1
5710;-917;1
5710;-904;1
5710;-916;1
5710;-885;1
5710;-868;1
5710;-825;1
5710;-751;1
5710;-705;1
5710;-638;1
5710;-600;1
5710;-530;1
5710;-444;1
5710;-409;1
5710;-396;1
5710;-430;1
5710;-433;1
5710;-466;1
5710;-504;1
5710;-532;1
5710;-575;1
5710;-616;1
5710;-600;1
5710;-626;1
5710;-613;1
5710;-614;1
5710;-599;1
5710;-603;1
5710;-549;1
5710;-559;1
5710;-533;1
5710;-596;1
5710;-596;1
5710;-596;1
5710;-596;1
5710;-596;1
5710;-596;1
5710;-596;1
5710;-596;1
5710;-596;1
5710;-596;1
5710;-596;1
5710;-596;1
5710;-596;1
5710;-564;1
5710;-561;1
5710;-529;1
5710;-533;1
5710;-529;1
5765;-502;1
5765;-496;1
5765;-492;1
5765;-464;1
5765;-478;1
5765;-448;1
5765;-448;1
5765;-442;1
5765;-434;1
5765;-398;1
5765;-397;1
5765;-401;1
5765;-382;1
5765;-370;1
5765;-389;1
5765;-350;1
5765;-359;1
5765;-372;1
5765;-371;1
5765;-374;1
5765;-391;1
5765;-382;1
5765;-406;1
5765;-391;1
5765;-405;1
5765;-378;1
5765;-394;1
5765;-374;1
5765;-394;1
5765;-371;1
5765;-389;1
5765;-372;1
5765;-385;1
5765;-360;1
5765;-353;1
5765;-351;1
5765;-324;1
5765;-322;1
5765;-318;1
5765;-286;1
5765;-300;1
5765;-283;1
5765;-291;1
5765;-273;1
5765;-278;1
5765;-239;1
5765;-261;1
5765;-250;1
5765;-272;1
5765;-263;1
5765;-288;1
5765;-259;1
5765;-256;1
5765;-238;1
5765;-241;1
5765;-227;1
5765;-240;1
5765;-226;1
5765;-213;1
5765;-213;1
5817;-212;1
5817;-207;1
5817;-223;1
5817;-200;1
5817;-231;1
5817;-232;1
5817;-249;1
5817;-267;1
5817;-274;1
5817;-255;1
5817;-283;1
5817;-269;1
5817;-289;1
5817;-264;1
5817;-289;1
5817;-280;1
5817;-314;1
5817;-296;1
5817;-309;1
5817;-298;1
5817;-333;1
5817;-312;1
5817;-310;1
5817;-326;1
5817;-313;1
5817;-327;1
5817;-343;1
5817;-314;1
5817;-334;1
5817;-336;1
5817;-381;1
5817;-368;1
5817;-387;1
5817;-380;1
5817;-426;1
5817;-436;1
5817;-453;1
5817;-454;1
5817;-460;1
5817;-497;1
5817;-507;1
5817;-505;1
5817;-492;1
5817;-512;1
5817;-534;1
5817;-546;1
5817;-560;1
5817;-565;1
5883;-562;1
5883;-577;1
5883;-605;1
5883;-566;1
5883;-551;1
5883;-571;1
5883;-562;1
5883;-581;1
5883;-582;1
5883;-538;1
5883;-559;1
5883;-566;1
5883;-602;1
5883;-582;1
5883;-601;1
5883;-592;1
5883;-633;1
5883;-641;1
5883;-673;1
5883;-703;1
5883;-764;1
5883;-777;1
5883;-787;1
5883;-783;1
5883;-752;1
5883;-780;1
5883;-778;1
5883;-812;1
5883;-812;1
5883;-846;1
5883;-859;1
5883;-870;1
5883;-881;1
5883;-856;1
5883;-873;1
5883;-853;1
5883;-744;1
5883;-684;1
5883;-729;1
5883;-721;1
5883;-718;1
5883;-699;1
5883;-662;1
5883;-655;1
5883;-660;1
5883;-634;1
5883;-624;1
5883;-629;1
5921;-615;1
5921;-632;1
5921;-638;1
5921;-704;1
5921;-649;1
5921;-624;1
5921;-647;1
5921;-548;1
5921;-644;1
5921;-623;1
5921;-625;1
5921;-596;1
5921;-547;1
5921;-542;1
5921;-541;1
5921;-503;1
5921;-504;1
5921;-471;1
5921;-487;1
5921;-535;1
5921;-478;1
5921;-433;1
5921;-424;1
5921;-355;1
5921;-440;1
5921;-441;1
5921;-421;1
5921;-415;1
5921;-432;1
5921;-420;1
5921;-421;1
5921;-406;1
5921;-410;1
5921;-401;1
5921;-414;1
5921;-455;1
5921;-409;1
5921;-368;1
5921;-366;1
5921;-275;1
5921;-358;1
5921;-334;1
5921;-326;1
5921;-333;1
5921;-345;1
5921;-312;1
5921;-318;1
5921;-324;1
5974;-315;1
5974;-329;1
5974;-333;1
5974;-371;1
5974;-331;1
5974;-314;1
5974;-317;1
5974;-212;1
5974;-291;1
5974;-277;1
5974;-300;1
5974;-273;1
5974;-276;1
5974;-256;1
5974;-278;1
5974;-254;1
5974;-249;1
5974;-251;1
5974;-259;1
5974;-439;1
5974;-315;1
5974;-319;1
5974;-328;1
5974;-337;1
5974;-317;1
5974;-315;1
5974;-315;1
5974;-300;1
5974;-335;1
5974;-322;1
5974;-341;1
5974;-313;1
5974;-349;1
5974;-340;1
5974;-348;1
5974;-369;1
5974;-355;1
5974;-377;1
5974;-408;1
5974;-399;1
5974;-430;1
5974;-414;1
5974;-420;1
5974;-432;1
5974;-451;1
5974;-442;1
5974;-453;1
5974;-439;1
5974;-455;1
5974;-474;1
5974;-495;1
5974;-480;1
5974;-481;1
5974;-487;1
5974;-510;1
5974;-508;1
5974;-523;1
5974;-528;1
5974;-540;1
5974;-556;1
6025;-541;1
6025;-542;1
6025;-558;1
6025;-530;1
6025;-560;1
6025;-550;1
6025;-571;1
6025;-569;1
6025;-584;1
6025;-575;1
6025;-593;1
6025;-595;1
6025;-638;1
6025;-642;1
6025;-673;1
6025;-672;1
6025;-703;1
6025;-707;1
6025;-711;1
6025;-722;1
6025;-737;1
6025;-715;1
6025;-752;1
6025;-743;1
6025;-763;1
6025;-775;1
6025;-800;1
6025;-780;1
6025;-814;1
6025;-800;1
6025;-820;1
6025;-817;1
6025;-834;1
6025;-834;1
6025;-864;1
6025;-897;1
6025;-877;1
6025;-904;1
6025;-879;1
6025;-801;1
6025;-791;1
6025;-842;1
6025;-860;1
6025;-878;1
6025;-879;1
6025;-892;1
6025;-911;1
6025;-941;1
6076;-931;1
6076;-932;1
6076;-951;1
6076;-943;1
6076;-975;1
6076;-952;1
6076;-953;1
6076;-1050;1
6076;-987;1
6076;-954;1
6076;-954;1
6076;-903;1
6076;-951;1
6076;-948;1
6076;-955;1
6076;-932;1
6076;-942;1
6076;-935;1
6076;-906;1
6076;-910;1
6076;-919;1
6076;-884;1
6076;-887;1
6076;-910;1
6076;-859;1
6076;-827;1
6076;-827;1
6076;-727;1
6076;-805;1
6076;-786;1
6076;-791;1
6076;-765;1
6076;-766;1
6076;-743;1
6076;-745;1
6076;-732;1
6076;-727;1
6076;-721;1
6076;-703;1
6076;-767;1
6076;-694;1
6076;-673;1
6076;-651;1
6076;-577;1
6076;-660;1
6076;-642;1
6076;-654;1
6076;-627;1
6133;-624;1
6133;-598;1
6133;-598;1
6133;-571;1
6133;-571;1
6133;-575;1
6133;-540;1
6133;-605;1
6133;-553;1
6133;-502;1
6133;-501;1
6133;-430;1
6133;-428;1
6133;-428;1
6133;-428;1
6133;-428;1
6133;-428;1
6133;-428;1
6133;-428;1
6133;-428;1
6133;-428;1
6133;-428;1
6133;-428;1
6133;-428;1
6133;-428;1
6133;-415;1
6133;-413;1
6133;-384;1
6133;-500;1
6133;-454;1
6133;-427;1
6133;-412;1
6133;-394;1
6133;-364;1
6133;-336;1
6133;-321;1
6133;-312;1
6133;-295;1
6133;-297;1
6133;-267;1
6133;-275;1
6133;-252;1
6133;-258;1
6133;-225;1
6133;-229;1
6133;-195;1
6133;-210;1
6133;-172;1
6133;-180;1
6133;-148;1
6133;-150;1
6133;-121;1
6133;-129;1
6133;-100;1
6133;-104;1
6133;-77;1
6133;-89;1
6133;-52;1
6133;-66;1
6133;-29;1
6186;-30;1
6186;-21;1
6186;-30;1
6186;-6;1
6186;-13;1
6186;9;1
6186;-6;1
6186;15;1
6186;1;1
6186;21;1
6186;14;1
6186;14;1
6186;5;1
6186;22;1
6186;0;1
6186;11;1
6186;3;1
6186;-6;1
6186;-16;1
6186;-16;1
6186;-40;1
6186;-33;1
6186;-26;1
6186;-47;1
6186;-41;1
6186;-61;1
6186;-76;1
6186;-64;1
6186;-86;1
6186;-67;1
6186;-83;1
6186;-99;1
6186;-122;1
6186;-107;1
6186;-123;1
6186;-144;1
6186;-137;1
6186;-149;1
6186;-179;1
6186;-178;1
6186;-211;1
6186;-207;1
6186;-229;1
6186;-234;1
6186;-257;1
6186;-248;1
6186;-271;1
6186;-259;1
6236;-291;1
6236;-276;1
6236;-314;1
6236;-312;1
6236;-338;1
6236;-350;1
6236;-349;1
6236;-381;1
6236;-384;1
6236;-385;1
6236;-408;1
6236;-432;1
6236;-433;1
6236;-439;1
6236;-438;1
6236;-413;1
6236;-438;1
6236;-437;1
6236;-470;1
6236;-484;1
6236;-511;1
6236;-520;1
6236;-566;1
6236;-577;1
6236;-612;1
6236;-600;1
6236;-636;1
6236;-630;1
6236;-654;1
6236;-629;1
6236;-630;1
6236;-640;1
6236;-664;1
6236;-662;1
6236;-697;1
6236;-697;1
6236;-758;1
6236;-764;1
6236;-790;1
6236;-774;1
6236;-802;1
6236;-831;1
6236;-814;1
6236;-812;1
6236;-810;1
6236;-780;1
6236;-781;1
6236;-779;1
6236;-739;1
6236;-728;1
6236;-725;1
6236;-715;1
6236;-688;1
6236;-694;1
6290;-698;1
6290;-702;1
6290;-707;1
6290;-688;1
6290;-706;1
6290;-747;1
6290;-798;1
6290;-804;1
6290;-853;1
6290;-861;1
6290;-895;1
6290;-888;1
6290;-909;1
6290;-891;1
6290;-907;1
6290;-877;1
6290;-880;1
6290;-841;1
6290;-844;1
6290;-797;1
6290;-802;1
6290;-782;1
6290;-788;1
6290;-790;1
6290;-751;1
6290;-742;1
6290;-730;1
6290;-702;1
6290;-698;1
6290;-689;1
6290;-659;1
6290;-662;1
6290;-687;1
6290;-671;1
6290;-699;1
6290;-695;1
6290;-720;1
6290;-710;1
6290;-707;1
6290;-682;1
6290;-685;1
6290;-678;1
6290;-660;1
6290;-663;1
6290;-698;1
6290;-672;1
6290;-680;1
6290;-711;1
6290;-706;1
6290;-728;1
6290;-747;1
6290;-743;1
6290;-789;1
6290;-789;1
6341;-804;1
6341;-820;1
6341;-840;1
6341;-831;1
6341;-861;1
6341;-828;1
6341;-830;1
6341;-805;1
6341;-816;1
6341;-789;1
6341;-812;1
6341;-779;1
6341;-787;1
6341;-776;1
6341;-788;1
6341;-758;1
6341;-771;1
6341;-752;1
6341;-784;1
6341;-781;1
6341;-796;1
6341;-782;1
6341;-795;1
6341;-785;1
6341;-793;1
6341;-787;1
6341;-783;1
6341;-769;1
6341;-762;1
6341;-746;1
6341;-727;1
6341;-705;1
6341;-723;1
6341;-696;1
6341;-708;1
6341;-678;1
6341;-680;1
6341;-667;1
6341;-688;1
6341;-652;1
6341;-648;1
6341;-668;1
6341;-659;1
6341;-669;1
6341;-672;1
6341;-647;1
6341;-671;1
6341;-665;1
6396;-675;1
6396;-666;1
6396;-667;1
6396;-657;1
6396;-676;1
6396;-656;1
6396;-659;1
6396;-648;1
6396;-662;1
6396;-640;1
6396;-641;1
6396;-646;1
6396;-637;1
6396;-651;1
6396;-678;1
6396;-660;1
6396;-688;1
6396;-707;1
6396;-694;1
6396;-713;1
6396;-708;1
6396;-698;1
6396;-727;1
6396;-725;1
6396;-714;1
6396;-702;1
6396;-725;1
6396;-712;1
6396;-723;1
6396;-709;1
6396;-711;1
6396;-690;1
6396;-715;1
6396;-690;1
6396;-691;1
6396;-701;1
6396;-695;1
6396;-688;1
6396;-689;1
6396;-664;1
6396;-672;1
6396;-648;1
6396;-661;1
6396;-637;1
6396;-645;1
6396;-622;1
6396;-620;1
6396;-628;1
6396;-608;1
6396;-608;1
6396;-617;1
6396;-602;1
6396;-612;1
6396;-625;1
6447;-595;1
6447;-599;1
6447;-596;1
6447;-568;1
6447;-587;1
6447;-565;1
6447;-569;1
6447;-562;1
6447;-569;1
6447;-549;1
6447;-567;1
6447;-559;1
6447;-574;1
6447;-566;1
6447;-569;1
6447;-555;1
6447;-580;1
6447;-564;1
6447;-573;1
6447;-586;1
6447;-607;1
6447;-575;1
6447;-597;1
6447;-582;1
6447;-589;1
6447;-590;1
6447;-607;1
6447;-584;1
6447;-595;1
6447;-602;1
6447;-577;1
6447;-592;1
6447;-606;1
6447;-593;1
6447;-597;1
6447;-580;1
6447;-611;1
6447;-593;1
6447;-607;1
6447;-587;1
6447;-603;1
6447;-587;1
6447;-593;1
6447;-598;1
6447;-608;1
6447;-596;1
6447;-603;1
6447;-587;1
6447;-585;1
6447;-587;1
6447;-580;1
6447;-568;1
6447;-580;1
6447;-554;1
6502;-555;1
6502;-535;1
6502;-553;1
6502;-541;1
6502;-538;1
6502;-528;1
6502;-508;1
6502;-510;1
6502;-525;1
6502;-491;1
6502;-506;1
6502;-493;1
6502;-512;1
6502;-490;1
6502;-503;1
6502;-479;1
6502;-507;1
6502;-490;1
6502;-510;1
6502;-478;1
6502;-507;1
6502;-508;1
6502;-531;1
6502;-547;1
6502;-554;1
6502;-575;1
6502;-600;1
6502;-589;1
6502;-608;1
6502;-574;1
6502;-564;1
6502;-559;1
6502;-560;1
6502;-516;1
6502;-487;1
6502;-464;1
6502;-406;1
6502;-353;1
6502;-343;1
6502;-291;1
6502;-216;1
6502;-153;1
6502;-104;1
6502;-103;1
6502;-143;1
6502;-150;1
6502;-192;1
6502;-202;1
6566;-221;1
6566;-241;1
6566;-263;1
6566;-236;1
6566;-265;1
6566;-263;1
6566;-302;1
6566;-294;1
6566;-321;1
6566;-300;1
6566;-327;1
6566;-317;1
6566;-348;1
6566;-321;1
6566;-332;1
6566;-312;1
6566;-328;1
6566;-300;1
6566;-314;1
6566;-287;1
6566;-299;1
6566;-281;1
6566;-285;1
6566;-282;1
6566;-266;1
6566;-285;1
6566;-263;1
6566;-265;1
6566;-262;1
6566;-248;1
6566;-255;1
6566;-249;1
6566;-246;1
6566;-234;1
6566;-227;1
6566;-249;1
6566;-238;1
6566;-228;1
6566;-221;1
6566;-178;1
6566;-196;1
6566;-194;1
6566;-190;1
6566;-171;1
6566;-195;1
6566;-175;1
6566;-205;1
6566;-177;1
6604;-188;1
6604;-200;1
6604;-215;1
6604;-206;1
6604;-214;1
6604;-196;1
6604;-223;1
6604;-233;1
6604;-247;1
6604;-218;1
6604;-238;1
6604;-231;1
6604;-254;1
6604;-258;1
6604;-267;1
6604;-245;1
6604;-278;1
6604;-278;1
6604;-281;1
6604;-290;1
6604;-322;1
6604;-319;1
6604;-328;1
6604;-339;1
6604;-335;1
6604;-342;1
6604;-375;1
6604;-359;1
6604;-361;1
6604;-371;1
6604;-363;1
6604;-372;1
6604;-386;1
6604;-348;1
6604;-365;1
6604;-380;1
6604;-370;1
6604;-363;1
6604;-365;1
6604;-350;1
6604;-378;1
6604;-388;1
6604;-374;1
6604;-391;1
6604;-408;1
6604;-399;1
6604;-419;1
6604;-425;1
6604;-407;1
6604;-413;1
6604;-431;1
6604;-413;1
6604;-427;1
6604;-398;1
6655;-417;1
6655;-433;1
6655;-443;1
6655;-417;1
6655;-429;1
6655;-457;1
6655;-445;1
6655;-452;1
6655;-456;1
6655;-427;1
6655;-448;1
6655;-459;1
6655;-463;1
6655;-446;1
6655;-452;1
6655;-437;1
6655;-431;1
6655;-436;1
6655;-421;1
6655;-415;1
6655;-439;1
6655;-417;1
6655;-422;1
6655;-409;1
6655;-409;1
6655;-414;1
6655;-436;1
6655;-418;1
6655;-440;1
6655;-455;1
6655;-435;1
6655;-452;1
6655;-476;1
6655;-467;1
6655;-480;1
6655;-499;1
6655;-486;1
6655;-510;1
6655;-543;1
6655;-533;1
6655;-557;1
6655;-583;1
6655;-575;1
6655;-583;1
6655;-585;1
6655;-566;1
6655;-576;1
6655;-567;1
6710;-581;1
6710;-561;1
6710;-592;1
6710;-593;1
6710;-605;1
6710;-599;1
6710;-580;1
6710;-577;1
6710;-585;1
6710;-573;1
6710;-596;1
6710;-586;1
6710;-597;1
6710;-601;1
6710;-622;1
6710;-604;1
6710;-619;1
6710;-637;1
6710;-634;1
6710;-647;1
6710;-678;1
6710;-665;1
6710;-687;1
6710;-664;1
6710;-673;1
6710;-682;1
6710;-701;1
6710;-688;1
6710;-699;1
6710;-667;1
6710;-682;1
6710;-654;1
6710;-678;1
6710;-664;1
6710;-688;1
6710;-667;1
6710;-690;1
6710;-693;1
6710;-708;1
6710;-688;1
6710;-701;1
6710;-683;1
6710;-693;1
6710;-689;1
6710;-706;1
6710;-674;1
6710;-678;1
6710;-678;1
6710;-655;1
6710;-647;1
6710;-662;1
6710;-632;1
6710;-656;1
6710;-642;1
6762;-643;1
6762;-616;1
6762;-638;1
6762;-615;1
6762;-639;1
6762;-619;1
6762;-636;1
6762;-626;1
6762;-645;1
6762;-605;1
6762;-610;1
6762;-618;1
6762;-590;1
6762;-589;1
6762;-593;1
6762;-566;1
6762;-568;1
6762;-570;1
6762;-549;1
6762;-557;1
6762;-568;1
6762;-534;1
6762;-537;1
6762;-544;1
6762;-512;1
6762;-516;1
6762;-520;1
6762;-489;1
6762;-484;1
6762;-464;1
6762;-483;1
6762;-454;1
6762;-466;1
6762;-431;1
6762;-429;1
6762;-439;1
6762;-431;1
6762;-427;1
6762;-461;1
6762;-444;1
6762;-470;1
6762;-443;1
6762;-461;1
6762;-461;1
6762;-470;1
6762;-457;1
6762;-484;1
6762;-446;1
6818;-437;1
6818;-407;1
6818;-415;1
6818;-381;1
6818;-395;1
6818;-376;1
6818;-403;1
6818;-371;1
6818;-397;1
6818;-384;1
6818;-408;1
6818;-427;1
6818;-429;1
6818;-447;1
6818;-478;1
6818;-482;1
6818;-513;1
6818;-491;1
6818;-501;1
6818;-495;1
6818;-507;1
6818;-493;1
6818;-525;1
6818;-507;1
6818;-520;1
6818;-500;1
6818;-526;1
6818;-516;1
6818;-530;1
6818;-544;1
6818;-534;1
6818;-532;1
6818;-559;1
6818;-555;1
6818;-564;1
6818;-588;1
6818;-582;1
6818;-598;1
6818;-623;1
6818;-604;1
6818;-613;1
6818;-635;1
6818;-625;1
6818;-638;1
6818;-648;1
6818;-632;1
6818;-664;1
6818;-663;1
6818;-693;1
6818;-665;1
6818;-680;1
6818;-674;1
6818;-707;1
6818;-712;1
6818;-720;1
6818;-718;1
6818;-741;1
6818;-737;1
6818;-767;1
6818;-742;1
6867;-746;1
6867;-760;1
6867;-787;1
6867;-766;1
6867;-777;1
6867;-779;1
6867;-804;1
6867;-797;1
6867;-822;1
6867;-793;1
6867;-797;1
6867;-815;1
6867;-818;1
6867;-825;1
6867;-839;1
6867;-828;1
6867;-837;1
6867;-827;1
6867;-832;1
6867;-806;1
6867;-822;1
6867;-821;1
6867;-836;1
6867;-825;1
6867;-849;1
6867;-820;1
6867;-839;1
6867;-828;1
6867;-856;1
6867;-825;1
6867;-836;1
6867;-843;1
6867;-873;1
6867;-866;1
6867;-879;1
6867;-845;1
6867;-844;1
6867;-858;1
6867;-869;1
6867;-842;1
6867;-845;1
6867;-822;1
6920;-823;1
6920;-831;1
6920;-835;1
6920;-806;1
6920;-803;1
6920;-812;1
6920;-786;1
6920;-797;1
6920;-775;1
6920;-765;1
6920;-775;1
6920;-784;1
6920;-784;1
6920;-767;1
6920;-778;1
6920;-747;1
6920;-750;1
6920;-759;1
6920;-740;1
6920;-738;1
6920;-735;1
6920;-707;1
6920;-713;1
6920;-692;1
6920;-695;1
6920;-690;1
6920;-680;1
6920;-644;1
6920;-668;1
6920;-648;1
6920;-667;1
6920;-657;1
6920;-656;1
6920;-633;1
6920;-634;1
6920;-641;1
6920;-613;1
6920;-613;1
6920;-615;1
6920;-594;1
6920;-613;1
6920;-591;1
6920;-582;1
6920;-573;1
6920;-584;1
6920;-565;1
6920;-586;1
6920;-553;1
6920;-565;1
6920;-561;1
6920;-583;1
6920;-566;1
6920;-584;1
6920;-567;1
6920;-559;1
6920;-550;1
6920;-556;1
6920;-543;1
6920;-536;1
6920;-524;1
6971;-508;1
6971;-507;1
6971;-517;1
6971;-492;1
6971;-497;1
6971;-460;1
6971;-464;1
6971;-442;1
6971;-461;1
6971;-441;1
6971;-454;1
6971;-431;1
6971;-453;1
6971;-431;1
6971;-444;1
6971;-414;1
6971;-423;1
6971;-448;1
6971;-423;1
6971;-430;1
6971;-428;1
6971;-414;1
6971;-443;1
6971;-427;1
6971;-428;1
6971;-421;1
6971;-431;1
6971;-420;1
6971;-448;1
6971;-424;1
6971;-441;1
6971;-429;1
6971;-436;1
6971;-427;1
6971;-426;1
6971;-424;1
6971;-404;1
6971;-415;1
6971;-425;1
6971;-393;1
6971;-396;1
6971;-410;1
6971;-394;1
6971;-392;1
6971;-398;1
6971;-363;1
6971;-373;1
6971;-368;1
7023;-342;1
7023;-342;1
7023;-342;1
7023;-342;1
7023;-342;1
7023;-342;1
7023;-342;1
7023;-342;1
7023;-342;1
7023;-342;1
7023;-342;1
7023;-342;1
7023;-342;1
7023;-319;1
7023;-341;1
7023;-313;1
7023;-318;1
7023;-280;1
7023;-269;1
7023;-266;1
7023;-275;1
7023;-242;1
7023;-242;1
7023;-204;1
7023;-214;1
7023;-218;1
7023;-212;1
7023;-180;1
7023;-183;1
7023;-197;1
7023;-177;1
7023;-187;1
7023;-129;1
7023;-101;1
7023;-87;1
7023;-71;1
7023;-44;1
7023;-26;1
7023;-46;1
7023;-28;1
7023;-40;1
7023;-48;1
7023;-64;1
7023;-64;1
7023;-64;1
7023;-64;1
7023;-64;1
7023;-64;1
7023;-64;1
7023;-64;1
7023;-64;1
7023;-64;1
7023;-64;1
7023;-64;1
7023;-64;1
7023;-37;1
7023;-42;1
7023;-14;1
7023;-35;1
7023;-26;1
7075;-44;1
7075;-12;1
7075;-47;1
7075;-29;1
7075;-31;1
7075;-4;1
7075;-17;1
7075;1;1
7075;-33;1
7075;-15;1
7075;-48;1
7075;-18;1
7075;-24;1
7075;-32;1
7075;-60;1
7075;-51;1
7075;-72;1
7075;-64;1
7075;-88;1
7075;-78;1
7075;-100;1
7075;-87;1
7075;-116;1
7075;-112;1
7075;-126;1
7075;-128;1
7075;-142;1
7075;-142;1
7075;-151;1
7075;-179;1
7075;-175;1
7075;-188;1
7075;-215;1
7075;-213;1
7075;-243;1
7075;-237;1
7075;-262;1
7075;-267;1
7075;-297;1
7075;-285;1
7075;-319;1
7075;-305;1
7075;-327;1
7075;-340;1
7075;-368;1
7075;-359;1
7075;-394;1
7075;-379;1
7075;-401;1
7075;-389;1
7075;-410;1
7075;-397;1
7075;-433;1
7075;-417;1
7131;-438;1
7131;-424;1
7131;-443;1
7131;-431;1
7131;-438;1
7131;-452;1
7131;-440;1
7131;-441;1
7131;-435;1
7131;-456;1
7131;-451;1
7131;-464;1
7131;-468;1
7131;-463;1
7131;-478;1
7131;-468;1
7131;-490;1
7131;-467;1
7131;-471;1
7131;-456;1
7131;-486;1
7131;-487;1
7131;-515;1
7131;-497;1
7131;-522;1
7131;-492;1
7131;-499;1
7131;-458;1
7131;-455;1
7131;-424;1
7131;-447;1
7131;-421;1
7131;-449;1
7131;-435;1
7131;-450;1
7131;-466;1
7131;-453;1
7131;-470;1
7131;-485;1
7131;-458;1
7131;-466;1
7131;-468;1
7131;-453;1
7131;-465;1
7131;-468;1
7131;-443;1
7131;-459;1
7131;-466;1
7131;-466;1
7131;-469;1
7131;-460;1
7131;-476;1
7131;-473;1
7131;-474;1
7182;-472;1
7182;-468;1
7182;-473;1
7182;-450;1
7182;-457;1
7182;-437;1
7182;-436;1
7182;-429;1
7182;-444;1
7182;-422;1
7182;-425;1
7182;-408;1
7182;-416;1
7182;-411;1
7182;-418;1
7182;-407;1
7182;-445;1
7182;-446;1
7182;-468;1
7182;-490;1
7182;-513;1
7182;-508;1
7182;-539;1
7182;-552;1
7182;-593;1
7182;-593;1
7182;-631;1
7182;-627;1
7182;-654;1
7182;-682;1
7182;-691;1
7182;-716;1
7182;-719;1
7182;-677;1
7182;-681;1
7182;-651;1
7182;-627;1
7182;-622;1
7182;-632;1
7182;-625;1
7182;-624;1
7182;-604;1
7182;-579;1
7182;-574;1
7182;-582;1
7182;-557;1
7182;-585;1
7182;-569;1
7252;-561;1
7252;-553;1
7252;-567;1
7252;-542;1
7252;-552;1
7252;-558;1
7252;-532;1
7252;-548;1
7252;-568;1
7252;-540;1
7252;-537;1
7252;-550;1
7252;-534;1
7252;-540;1
7252;-545;1
7252;-508;1
7252;-525;1
7252;-507;1
7252;-537;1
7252;-524;1
7252;-544;1
7252;-531;1
7252;-565;1
7252;-558;1
7252;-568;1
7252;-563;1
7252;-576;1
7252;-550;1
7252;-566;1
7252;-571;1
7252;-559;1
7252;-586;1
7252;-580;1
7252;-584;1
7252;-587;1
7252;-592;1
7252;-589;1
7252;-592;1
7252;-618;1
7252;-598;1
7252;-607;1
7252;-597;1
7252;-617;1
7252;-609;1
7252;-627;1
7252;-602;1
7252;-631;1
7252;-607;1
7252;-640;1
7252;-643;1
7252;-669;1
7252;-644;1
7252;-664;1
7252;-650;1
7288;-685;1
7288;-670;1
7288;-679;1
7288;-657;1
7288;-677;1
7288;-681;1
7288;-668;1
7288;-672;1
7288;-674;1
7288;-657;1
7288;-676;1
7288;-656;1
7288;-665;1
7288;-629;1
7288;-660;1
7288;-670;1
7288;-701;1
7288;-704;1
7288;-705;1
7288;-699;1
7288;-722;1
7288;-718;1
7288;-721;1
7288;-722;1
7288;-715;1
7288;-709;1
7288;-730;1
7288;-716;1
7288;-742;1
7288;-777;1
7288;-761;1
7288;-776;1
7288;-782;1
7288;-752;1
7288;-749;1
7288;-712;1
7288;-726;1
7288;-679;1
7288;-647;1
7288;-582;1
7288;-554;1
7288;-520;1
7288;-448;1
7288;-412;1
7288;-346;1
7288;-244;1
7288;-220;1
7288;-179;1
7344;-187;1
7344;-210;1
7344;-235;1
7344;-250;1
7344;-275;1
7344;-293;1
7344;-287;1
7344;-304;1
7344;-315;1
7344;-295;1
7344;-309;1
7344;-301;1
7344;-323;1
7344;-327;1
7344;-345;1
7344;-318;1
7344;-294;1
7344;-296;1
7344;-290;1
7344;-287;1
7344;-292;1
7344;-249;1
7344;-238;1
7344;-250;1
7344;-228;1
7344;-229;1
7344;-247;1
7344;-214;1
7344;-240;1
7344;-224;1
7344;-231;1
7344;-242;1
7344;-249;1
7344;-220;1
7344;-238;1
7344;-219;1
7344;-234;1
7344;-205;1
7344;-211;1
7344;-179;1
7344;-202;1
7344;-178;1
7344;-194;1
7344;-200;1
7344;-199;1
7344;-180;1
7344;-198;1
7344;-213;1
7344;-199;1
7344;-217;1
7344;-191;1
7344;-220;1
7344;-224;1
7344;-232;1
7344;-235;1
7344;-216;1
7344;-252;1
7344;-251;1
7344;-249;1
7344;-251;1
7395;-239;1
7395;-250;1
7395;-277;1
7395;-252;1
7395;-273;1
7395;-266;1
7395;-277;1
7395;-301;1
7395;-312;1
7395;-291;1
7395;-311;1
7395;-297;1
7395;-309;1
7395;-321;1
7395;-341;1
7395;-316;1
7395;-333;1
7395;-359;1
7395;-328;1
7395;-331;1
7395;-334;1
7395;-317;1
7395;-338;1
7395;-318;1
7395;-323;1
7395;-307;1
7395;-309;1
7395;-291;1
7395;-306;1
7395;-305;1
7395;-262;1
7395;-262;1
7395;-262;1
7395;-262;1
7395;-262;1
7395;-262;1
7395;-262;1
7395;-262;1
7395;-262;1
7395;-262;1
7395;-262;1
7395;-262;1
7395;-262;1
7395;-270;1
7395;-265;1
7395;-250;1
7395;-226;1
7395;-237;1
7395;-226;1
7395;-238;1
7395;-247;1
7395;-211;1
7395;-236;1
7395;-235;1
7448;-246;1
7448;-205;1
7448;-201;1
7448;-186;1
7448;-212;1
7448;-188;1
7448;-184;1
7448;-164;1
7448;-177;1
7448;-153;1
7448;-157;1
7448;-150;1
7448;-120;1
7448;-128;1
7448;-138;1
7448;-99;1
7448;-77;1
7448;-34;1
7448;-43;1
7448;-4;1
7448;-1;1
7448;34;1
7448;8;1
7448;16;1
7448;10;1
7448;55;1
7448;59;1
7448;93;1
7448;102;1
7448;117;1
7448;99;1
7448;95;1
7448;74;1
7448;85;1
7448;142;1
7448;229;1
7448;347;1
7448;412;1
7448;408;1
7448;393;1
7448;315;1
7448;246;1
7448;110;1
7448;22;1
7448;-96;1
7448;-185;1
7448;-317;1
7448;-357;1
7503;-300;1
7503;-175;1
7503;-78;1
7503;14;1
7503;24;1
7503;43;1
7503;-7;1
7503;-77;1
7503;-168;1
7503;-216;1
7503;-306;1
7503;-416;1
7503;-526;1
7503;-635;1
7503;-708;1
7503;-722;1
7503;-728;1
7503;-748;1
7503;-724;1
7503;-692;1
7503;-621;1
7503;-619;1
7503;-600;1
7503;-598;1
7503;-596;1
7503;-609;1
7503;-642;1
7503;-698;1
7503;-741;1
7503;-754;1
7503;-807;1
7503;-831;1
7503;-868;1
7503;-851;1
7503;-854;1
7503;-845;1
7503;-845;1
7503;-783;1
7503;-783;1
7503;-745;1
7503;-747;1
7503;-696;1
7555;-433;1
7555;-433;1
7555;-433;1
7555;-433;1
7555;-433;1
7555;-433;1
7555;-433;1
7555;-433;1
7555;-433;1
7555;-433;1
7555;-433;1
7555;-433;1
7555;-433;1
7555;-433;1
7555;-433;1
7555;-433;1
7555;-433;1
7555;-433;1
7555;-433;1
7555;-359;1
7555;-351;1
7555;-313;1
7555;-300;1
7555;-288;1
7555;-250;1
7555;-251;1
7555;-212;1
7555;-204;1
7555;-114;1
7555;-117;1
7555;-111;1
7555;-119;1
7555;-123;1
7555;-121;1
7555;-123;1
7555;-145;1
7555;-74;1
7555;-72;1
7555;-82;1
7555;-65;1
7555;-102;1
7555;-133;1
7555;-123;1
7555;-147;1
7555;-188;1
7555;-161;1
7555;-210;1
7555;-210;1
7555;-260;1
7555;-305;1
7555;-357;1
7555;-358;1
7555;-394;1
7555;-425;1
7555;-388;1
7555;-408;1
7555;-435;1
7555;-428;1
7555;-457;1
7555;-459;1
7555;-495;1
7555;-497;1
7555;-539;1
7555;-543;1
7555;-547;1
7555;-555;1
7555;-594;1
7555;-621;1
7555;-663;1
7555;-655;1
7555;-669;1
7555;-685;1
7605;-663;1
7605;-665;1
7605;-682;1
7605;-661;1
7605;-689;1
7605;-683;1
7605;-696;1
7605;-702;1
7605;-718;1
7605;-717;1
7605;-739;1
7605;-758;1
7605;-749;1
7605;-773;1
7605;-791;1
7605;-776;1
7605;-799;1
7605;-770;1
7605;-783;1
7605;-783;1
7605;-794;1
7605;-769;1
7605;-781;1
7605;-748;1
7605;-777;1
7605;-739;1
7605;-761;1
7605;-750;1
7605;-773;1
7605;-755;1
7605;-764;1
7605;-757;1
7605;-775;1
7605;-748;1
7605;-752;1
7605;-723;1
7605;-692;1
7605;-710;1
7605;-688;1
7605;-699;1
7605;-695;1
7605;-692;1
7605;-689;1
7605;-686;1
7605;-643;1
7605;-642;1
7605;-634;1
7605;-640;1
7657;-627;1
7657;-621;1
7657;-642;1
7657;-623;1
7657;-629;1
7657;-597;1
7657;-587;1
7657;-598;1
7657;-618;1
7657;-609;1
7657;-624;1
7657;-630;1
7657;-611;1
7657;-591;1
7657;-595;1
7657;-566;1
7657;-583;1
7657;-599;1
7657;-587;1
7657;-605;1
7657;-640;1
7657;-627;1
7657;-636;1
7657;-581;1
7657;-604;1
7657;-611;1
7657;-659;1
7657;-657;1
7657;-674;1
7657;-687;1
7657;-700;1
7657;-655;1
7657;-673;1
7657;-653;1
7657;-662;1
7657;-681;1
7657;-679;1
7657;-683;1
7657;-703;1
7657;-679;1
7657;-694;1
7657;-679;1
7657;-673;1
7657;-670;1
7657;-683;1
7657;-674;1
7657;-698;1
7657;-683;1
7711;-700;1
7711;-707;1
7711;-729;1
7711;-741;1
7711;-770;1
7711;-806;1
7711;-805;1
7711;-848;1
7711;-904;1
7711;-923;1
7711;-947;1
7711;-915;1
7711;-930;1
7711;-924;1
7711;-942;1
7711;-924;1
7711;-943;1
7711;-964;1
7711;-943;1
7711;-940;1
7711;-940;1
7711;-919;1
7711;-946;1
7711;-925;1
7711;-929;1
7711;-939;1
7711;-961;1
7711;-929;1
7711;-940;1
7711;-925;1
7711;-926;1
7711;-931;1
7711;-940;1
7711;-926;1
7711;-928;1
7711;-929;1
7711;-923;1
7711;-910;1
7711;-914;1
7711;-889;1
7711;-912;1
7711;-905;1
7711;-925;1
7711;-922;1
7711;-921;1
7711;-865;1
7711;-866;1
7711;-874;1
7711;-842;1
7711;-838;1
7711;-850;1
7711;-840;1
7711;-849;1
7711;-823;1
7761;-825;1
7761;-791;1
7761;-823;1
7761;-803;1
7761;-807;1
7761;-819;1
7761;-811;1
7761;-830;1
7761;-843;1
7761;-784;1
7761;-790;1
7761;-781;1
7761;-780;1
7761;-786;1
7761;-784;1
7761;-766;1
7761;-784;1
7761;-802;1
7761;-794;1
7761;-750;1
7761;-773;1
7761;-769;1
7761;-806;1
7761;-827;1
7761;-809;1
7761;-830;1
7761;-851;1
7761;-803;1
7761;-806;1
7761;-808;1
7761;-786;1
7761;-792;1
7761;-805;1
7761;-788;1
7761;-784;1
7761;-786;1
7761;-765;1
7761;-771;1
7761;-781;1
7761;-741;1
7761;-767;1
7761;-817;1
7761;-813;1
7761;-825;1
7761;-845;1
7761;-849;1
7761;-880;1
7761;-896;1
7812;-869;1
7812;-859;1
7812;-861;1
7812;-817;1
7812;-827;1
7812;-802;1
7812;-760;1
7812;-772;1
7812;-772;1
7812;-779;1
7812;-787;1
7812;-779;1
7812;-761;1
7812;-761;1
7812;-761;1
7812;-761;1
7812;-761;1
7812;-761;1
7812;-761;1
7812;-761;1
7812;-761;1
7812;-761;1
7812;-761;1
7812;-761;1
7812;-761;1
7812;-749;1
7812;-747;1
7812;-722;1
7812;-736;1
7812;-754;1
7812;-738;1
7812;-742;1
7812;-743;1
7812;-728;1
7812;-761;1
7812;-750;1
7812;-755;1
7812;-755;1
7812;-777;1
7812;-738;1
7812;-760;1
7812;-748;1
7812;-763;1
7812;-749;1
7812;-787;1
7812;-747;1
7812;-761;1
7812;-743;1
7812;-765;1
7812;-757;1
7812;-771;1
7812;-741;1
7812;-746;1
7812;-761;1
7812;-760;1
7812;-776;1
7812;-762;1
7812;-733;1
7812;-764;1
7812;-769;1
7864;-791;1
7864;-787;1
7864;-795;1
7864;-786;1
7864;-771;1
7864;-764;1
7864;-737;1
7864;-733;1
7864;-741;1
7864;-729;1
7864;-753;1
7864;-720;1
7864;-740;1
7864;-727;1
7864;-746;1
7864;-695;1
7864;-712;1
7864;-701;1
7864;-727;1
7864;-731;1
7864;-745;1
7864;-722;1
7864;-714;1
7864;-691;1
7864;-693;1
7864;-662;1
7864;-675;1
7864;-643;1
7864;-655;1
7864;-637;1
7864;-651;1
7864;-633;1
7864;-660;1
7864;-641;1
7864;-656;1
7864;-661;1
7864;-638;1
7864;-659;1
7864;-655;1
7864;-646;1
7864;-639;1
7864;-636;1
7864;-619;1
7864;-609;1
7864;-616;1
7864;-588;1
7864;-595;1
7864;-564;1
7915;-566;1
7915;-563;1
7915;-564;1
7915;-541;1
7915;-564;1
7915;-553;1
7915;-580;1
7915;-557;1
7915;-571;1
7915;-560;1
7915;-555;1
7915;-528;1
7915;-532;1
7915;-527;1
7915;-535;1
7915;-508;1
7915;-519;1
7915;-482;1
7915;-462;1
7915;-448;1
7915;-449;1
7915;-421;1
7915;-431;1
7915;-439;1
7915;-410;1
7915;-430;1
7915;-440;1
7915;-414;1
7915;-428;1
7915;-429;1
7915;-437;1
7915;-427;1
7915;-437;1
7915;-408;1
7915;-434;1
7915;-426;1
7915;-429;1
7915;-411;1
7915;-415;1
7915;-411;1
7915;-416;1
7915;-423;1
7915;-400;1
7915;-405;1
7915;-428;1
7915;-406;1
7915;-423;1
7915;-402;1
7968;-412;1
7968;-389;1
7968;-404;1
7968;-356;1
7968;-360;1
7968;-333;1
7968;-332;1
7968;-289;1
7968;-295;1
7968;-254;1
7968;-272;1
7968;-238;1
7968;-227;1
7968;-229;1
7968;-250;1
7968;-209;1
7968;-218;1
7968;-182;1
7968;-185;1
7968;-196;1
7968;-190;1
7968;-151;1
7968;-156;1
7968;-136;1
7968;-143;1
7968;-126;1
7968;-116;1
7968;-116;1
7968;-109;1
7968;-91;1
7968;-72;1
7968;-61;1
7968;-78;1
7968;-59;1
7968;-50;1
7968;-51;1
7968;-21;1
7968;-20;1
7968;-22;1
7968;3;1
7968;0;1
7968;33;1
7968;22;1
7968;55;1
7968;61;1
7968;104;1
7968;70;1
7968;96;1
7968;98;1
7968;127;1
7968;119;1
7968;143;1
7968;123;1
7968;159;1
8018;146;1
8018;163;1
8018;120;1
8018;150;1
8018;128;1
8018;165;1
8018;149;1
8018;161;1
8018;143;1
8018;180;1
8018;175;1
8018;166;1
8018;172;1
8018;188;1
8018;185;1
8018;188;1
8018;187;1
8018;190;1
8018;205;1
8018;208;1
8018;209;1
8018;237;1
8018;227;1
8018;255;1
8018;247;1
8018;274;1
8018;255;1
8018;277;1
8018;286;1
8018;301;1
8018;336;1
8018;326;1
8018;313;1
8018;364;1
8018;360;1
8018;384;1
8018;359;1
8018;375;1
8018;374;1
8018;404;1
8018;371;1
8018;350;1
8018;289;1
8018;290;1
8018;245;1
8018;240;1
8018;205;1
8018;230;1
8071;221;1
8071;219;1
8071;221;1
8071;269;1
8071;282;1
8071;312;1
8071;354;1
8071;355;1
8071;391;1
8071;435;1
8071;501;1
8071;484;1
8071;465;1
8071;438;1
8071;367;1
8071;328;1
8071;255;1
8071;177;1
8071;140;1
8071;104;1
8071;53;1
8071;33;1
8071;-15;1
8071;-23;1
8071;-48;1
8071;-74;1
8071;-109;1
8071;-103;1
8071;-118;1
8071;-105;1
8071;-119;1
8071;-147;1
8071;-158;1
8071;-143;1
8071;-177;1
8071;-161;1
8071;-182;1
8071;-184;1
8071;-207;1
8071;-199;1
8071;-211;1
8071;-220;1
8071;-245;1
8071;-241;1
8071;-268;1
8071;-256;1
8071;-286;1
8071;-272;1
8071;-276;1
8071;-282;1
8071;-304;1
8071;-299;1
8071;-288;1
8071;-301;1
8123;-301;1
8123;-296;1
8123;-318;1
8123;-300;1
8123;-317;1
8123;-300;1
8123;-303;1
8123;-302;1
8123;-312;1
8123;-290;1
8123;-303;1
8123;-317;1
8123;-294;1
8123;-311;1
8123;-336;1
8123;-312;1
8123;-335;1
8123;-349;1
8123;-339;1
8123;-372;1
8123;-393;1
8123;-370;1
8123;-399;1
8123;-400;1
8123;-405;1
8123;-413;1
8123;-429;1
8123;-411;1
8123;-447;1
8123;-439;1
8123;-471;1
8123;-464;1
8123;-486;1
8123;-467;1
8123;-500;1
8123;-496;1
8123;-507;1
8123;-515;1
8123;-511;1
8123;-518;1
8123;-528;1
8123;-524;1
8123;-526;1
8123;-515;1
8123;-524;1
8123;-512;1
8123;-535;1
8123;-522;1
8174;-534;1
8174;-515;1
8174;-533;1
8174;-520;1
8174;-543;1
8174;-517;1
8174;-531;1
8174;-518;1
8174;-536;1
8174;-504;1
8174;-523;1
8174;-502;1
8174;-507;1
8174;-504;1
8174;-500;1
8174;-483;1
8174;-503;1
8174;-502;1
8174;-478;1
8174;-490;1
8174;-505;1
8174;-480;1
8174;-499;1
8174;-478;1
8174;-504;1
8174;-477;1
8174;-479;1
8174;-471;1
8174;-485;1
8174;-497;1
8174;-483;1
8174;-463;1
8174;-479;1
8174;-458;1
8174;-454;1
8174;-444;1
8174;-425;1
8174;-430;1
8174;-438;1
8174;-403;1
8174;-437;1
8174;-417;1
8174;-425;1
8174;-399;1
8174;-417;1
8174;-408;1
8174;-421;1
8174;-409;1
8174;-381;1
8174;-399;1
8174;-415;1
8174;-382;1
8174;-386;1
8174;-363;1
8230;-372;1
8230;-377;1
8230;-364;1
8230;-337;1
8230;-369;1
8230;-388;1
8230;-362;1
8230;-376;1
8230;-407;1
8230;-400;1
8230;-404;1
8230;-413;1
8230;-419;1
8230;-420;1
8230;-445;1
8230;-434;1
8230;-427;1
8230;-435;1
8230;-451;1
8230;-434;1
8230;-443;1
8230;-437;1
8230;-437;1
8230;-459;1
8230;-452;1
8230;-461;1
8230;-494;1
8230;-476;1
8230;-497;1
8230;-485;1
8230;-492;1
8230;-519;1
8230;-525;1
8230;-483;1
8230;-501;1
8230;-519;1
8230;-496;1
8230;-491;1
8230;-497;1
8230;-480;1
8230;-510;1
8230;-484;1
8230;-500;1
8230;-477;1
8230;-497;1
8230;-486;1
8230;-509;1
8230;-477;1
8289;-499;1
8289;-491;1
8289;-514;1
8289;-490;1
8289;-499;1
8289;-482;1
8289;-493;1
8289;-500;1
8289;-499;1
8289;-479;1
8289;-495;1
8289;-490;1
8289;-483;1
8289;-468;1
8289;-489;1
8289;-507;1
8289;-511;1
8289;-520;1
8289;-508;1
8289;-521;1
8289;-555;1
8289;-543;1
8289;-560;1
8289;-543;1
8289;-560;1
8289;-572;1
8289;-581;1
8289;-546;1
8289;-549;1
8289;-577;1
8289;-554;1
8289;-561;1
8289;-565;1
8289;-547;1
8289;-564;1
8289;-527;1
8289;-526;1
8289;-510;1
8289;-547;1
8289;-536;1
8289;-553;1
8289;-553;1
8289;-540;1
8289;-566;1
8289;-565;1
8289;-544;1
8289;-543;1
8289;-522;1
8289;-552;1
8289;-534;1
8289;-546;1
8289;-528;1
8289;-546;1
8289;-546;1
8289;-550;1
8289;-535;1
8289;-539;1
8289;-524;1
8289;-545;1
8289;-566;1
8340;-554;1
8340;-561;1
8340;-587;1
8340;-577;1
8340;-584;1
8340;-595;1
8340;-580;1
8340;-601;1
8340;-613;1
8340;-589;1
8340;-616;1
8340;-611;1
8340;-645;1
8340;-631;1
8340;-654;1
8340;-668;1
8340;-705;1
8340;-698;1
8340;-722;1
8340;-729;1
8340;-744;1
8340;-740;1
8340;-776;1
8340;-756;1
8340;-769;1
8340;-761;1
8340;-783;1
8340;-771;1
8340;-791;1
8340;-777;1
8340;-794;1
8340;-782;1
8340;-817;1
8340;-819;1
8340;-826;1
8340;-824;1
8340;-830;1
8340;-849;1
8340;-881;1
8340;-865;1
8340;-869;1
8340;-883;1
8340;-868;1
8340;-886;1
8340;-920;1
8340;-888;1
8340;-912;1
8340;-907;1
8391;-915;1
8391;-922;1
8391;-929;1
8391;-904;1
8391;-917;1
8391;-936;1
8391;-930;1
8391;-946;1
8391;-960;1
8391;-950;1
8391;-987;1
8391;-969;1
8391;-985;1
8391;-976;1
8391;-967;1
8391;-961;1
8391;-956;1
8391;-964;1
8391;-950;1
8391;-959;1
8391;-969;1
8391;-956;1
8391;-985;1
8391;-977;1
8391;-1000;1
8391;-992;1
8391;-1024;1
8391;-1014;1
8391;-1028;1
8391;-1039;1
8391;-1020;1
8391;-1018;1
8391;-1042;1
8391;-1006;1
8391;-1028;1
8391;-1050;1
8391;-1049;1
8391;-1044;1
8391;-1060;1
8391;-1033;1
8391;-1041;1
8391;-1040;1
8391;-1028;1
8391;-1041;1
8391;-1045;1
8391;-1025;1
8391;-1036;1
8391;-1050;1
8446;-1033;1
8446;-1045;1
8446;-1044;1
8446;-1023;1
8446;-1038;1
8446;-1037;1
8446;-1024;1
8446;-1025;1
8446;-1032;1
8446;-997;1
8446;-1021;1
8446;-1001;1
8446;-1001;1
8446;-1001;1
8446;-1001;1
8446;-1001;1
8446;-1001;1
8446;-1001;1
8446;-1001;1
8446;-1001;1
8446;-1001;1
8446;-1001;1
8446;-1001;1
8446;-1001;1
8446;-1001;1
8446;-978;1
8446;-998;1
8446;-985;1
8446;-991;1
8446;-993;1
8446;-952;1
8446;-960;1
8446;-993;1
8446;-976;1
8446;-987;1
8446;-967;1
8446;-977;1
8446;-976;1
8446;-977;1
8446;-949;1
8446;-967;1
8446;-942;1
8446;-957;1
8446;-948;1
8446;-963;1
8446;-932;1
8446;-933;1
8446;-951;1
8446;-932;1
8446;-928;1
8446;-925;1
8446;-906;1
8446;-918;1
8446;-934;1
8446;-898;1
8446;-910;1
8446;-913;1
8446;-888;1
8446;-899;1
8446;-884;1
8498;-893;1
8498;-881;1
8498;-888;1
8498;-870;1
8498;-885;1
8498;-888;1
8498;-902;1
8498;-883;1
8498;-893;1
8498;-857;1
8498;-879;1
8498;-896;1
8498;-879;1
8498;-865;1
8498;-881;1
8498;-866;1
8498;-875;1
8498;-877;1
8498;-870;1
8498;-868;1
8498;-881;1
8498;-861;1
8498;-890;1
8498;-868;1
8498;-882;1
8498;-870;1
8498;-892;1
8498;-888;1
8498;-883;1
8498;-884;1
8498;-903;1
8498;-934;1
8498;-943;1
8498;-924;1
8498;-935;1
8498;-915;1
8498;-932;1
8498;-925;1
8498;-921;1
8498;-887;1
8498;-893;1
8498;-872;1
8498;-879;1
8498;-873;1
8498;-855;1
8498;-821;1
8498;-833;1
8498;-811;1
8498;-804;1
8498;-752;1
8498;-758;1
8498;-723;1
8498;-720;1
8498;-711;1
8549;-675;1
8549;-666;1
8549;-681;1
8549;-655;1
8549;-657;1
8549;-658;1
8549;-628;1
8549;-642;1
8549;-661;1
8549;-632;1
8549;-640;1
8549;-607;1
8549;-628;1
8549;-621;1
8549;-629;1
8549;-601;1
8549;-599;1
8549;-615;1
8549;-600;1
8549;-604;1
8549;-604;1
8549;-576;1
8549;-596;1
8549;-574;1
8549;-597;1
8549;-554;1
8549;-573;1
8549;-557;1
8549;-572;1
8549;-545;1
8549;-540;1
8549;-537;1
8549;-531;1
8549;-517;1
8549;-522;1
8549;-497;1
8549;-490;1
8549;-464;1
8549;-479;1
8549;-448;1
8549;-420;1
8549;-418;1
8549;-421;1
8549;-403;1
8549;-405;1
8549;-360;1
8549;-378;1
8549;-360;1
8549;-369;1
8549;-337;1
8549;-320;1
8549;-289;1
8549;-303;1
8549;-279;1
8605;-279;1
8605;-256;1
8605;-247;1
8605;-227;1
8605;-232;1
8605;-230;1
8605;-197;1
8605;-183;1
8605;-189;1
8605;-173;1
8605;-168;1
8605;-172;1
8605;-149;1
8605;-163;1
8605;-173;1
8605;-153;1
8605;-163;1
8605;-167;1
8605;-144;1
8605;-161;1
8605;-171;1
8605;-144;1
8605;-141;1
8605;-126;1
8605;-150;1
8605;-135;1
8605;-152;1
8605;-133;1
8605;-148;1
8605;-125;1
8605;-132;1
8605;-137;1
8605;-152;1
8605;-138;1
8605;-160;1
8605;-145;1
8605;-159;1
8605;-175;1
8605;-190;1
8605;-161;1
8605;-191;1
8605;-174;1
8605;-179;1
8605;-161;1
8605;-184;1
8605;-169;1
8605;-191;1
8605;-163;1
8655;-174;1
8655;-184;1
8655;-213;1
8655;-203;1
8655;-206;1
8655;-221;1
8655;-202;1
8655;-205;1
8655;-222;1
8655;-199;1
8655;-220;1
8655;-198;1
8655;-204;1
8655;-205;1
8655;-209;1
8655;-188;1
8655;-199;1
8655;-210;1
8655;-194;1
8655;-201;1
8655;-207;1
8655;-220;1
8655;-220;1
8655;-221;1
8655;-227;1
8655;-247;1
8655;-266;1
8655;-242;1
8655;-252;1
8655;-236;1
8655;-249;1
8655;-261;1
8655;-269;1
8655;-248;1
8655;-276;1
8655;-254;1
8655;-267;1
8655;-256;1
8655;-277;1
8655;-267;1
8655;-276;1
8655;-288;1
8655;-275;1
8655;-298;1
8655;-318;1
8655;-312;1
8655;-340;1
8655;-336;1
8655;-359;1
8655;-351;1
8655;-389;1
8655;-366;1
8655;-402;1
8655;-388;1
8707;-407;1
8707;-398;1
8707;-439;1
8707;-432;1
8707;-456;1
8707;-453;1
8707;-463;1
8707;-465;1
8707;-497;1
8707;-469;1
8707;-491;1
8707;-515;1
8707;-504;1
8707;-511;1
8707;-533;1
8707;-516;1
8707;-539;1
8707;-553;1
8707;-546;1
8707;-551;1
8707;-561;1
8707;-562;1
8707;-585;1
8707;-602;1
8707;-590;1
8707;-593;1
8707;-611;1
8707;-607;1
8707;-626;1
8707;-591;1
8707;-606;1
8707;-620;1
8707;-645;1
8707;-616;1
8707;-617;1
8707;-619;1
8707;-594;1
8707;-608;1
8707;-613;1
8707;-598;1
8707;-616;1
8707;-595;1
8707;-617;1
8707;-603;1
8707;-623;1
8707;-594;1
8707;-626;1
8707;-622;1
8762;-630;1
8762;-622;1
8762;-619;1
8762;-620;1
8762;-640;1
8762;-628;1
8762;-624;1
8762;-630;1
8762;-624;1
8762;-609;1
8762;-631;1
8762;-617;1
8762;-633;1
8762;-621;1
8762;-654;1
8762;-659;1
8762;-703;1
8762;-701;1
8762;-725;1
8762;-748;1
8762;-773;1
8762;-763;1
8762;-796;1
8762;-773;1
8762;-811;1
8762;-826;1
8762;-872;1
8762;-886;1
8762;-930;1
8762;-961;1
8762;-1020;1
8762;-1023;1
8762;-1084;1
8762;-1077;1
8762;-1082;1
8762;-1064;1
8762;-1052;1
8762;-1091;1
8762;-1047;1
8762;-1001;1
8762;-964;1
8762;-905;1
8762;-887;1
8762;-843;1
8762;-799;1
8762;-702;1
8762;-659;1
8762;-657;1
8762;-646;1
8762;-669;1
8762;-696;1
8762;-697;1
8762;-750;1
8762;-760;1
8815;-770;1
8815;-780;1
8815;-789;1
8815;-774;1
8815;-800;1
8815;-825;1
8815;-822;1
8815;-826;1
8815;-847;1
8815;-827;1
8815;-832;1
8815;-838;1
8815;-816;1
8815;-814;1
8815;-818;1
8815;-785;1
8815;-769;1
8815;-771;1
8815;-735;1
8815;-737;1
8815;-752;1
8815;-726;1
8815;-732;1
8815;-721;1
8815;-725;1
8815;-715;1
8815;-745;1
8815;-724;1
8815;-735;1
8815;-709;1
8815;-692;1
8815;-699;1
8815;-688;1
8815;-674;1
8815;-662;1
8815;-657;1
8815;-641;1
8815;-616;1
8815;-610;1
8815;-580;1
8815;-608;1
8815;-601;1
8815;-610;1
8815;-605;1
8815;-627;1
8815;-614;1
8815;-625;1
8815;-637;1
8867;-594;1
8867;-609;1
8867;-641;1
8867;-635;1
8867;-664;1
8867;-640;1
8867;-643;1
8867;-658;1
8867;-685;1
8867;-660;1
8867;-683;1
8867;-672;1
8867;-694;1
8867;-715;1
8867;-739;1
8867;-726;1
8867;-737;1
8867;-768;1
8867;-763;1
8867;-774;1
8867;-761;1
8867;-785;1
8867;-803;1
8867;-829;1
8867;-830;1
8867;-813;1
8867;-848;1
8867;-837;1
8867;-864;1
8867;-844;1
8867;-844;1
8867;-836;1
8867;-858;1
8867;-849;1
8867;-855;1
8867;-858;1
8867;-849;1
8867;-848;1
8867;-859;1
8867;-814;1
8867;-817;1
8867;-832;1
8867;-809;1
8867;-811;1
8867;-799;1
8867;-767;1
8867;-784;1
8867;-753;1
8867;-762;1
8867;-728;1
8867;-734;1
8867;-705;1
8867;-725;1
8867;-695;1
8918;-699;1
8918;-660;1
8918;-684;1
8918;-654;1
8918;-660;1
8918;-644;1
8918;-636;1
8918;-605;1
8918;-616;1
8918;-584;1
8918;-586;1
8918;-543;1
8918;-532;1
8918;-521;1
8918;-523;1
8918;-497;1
8918;-470;1
8918;-456;1
8918;-450;1
8918;-445;1
8918;-446;1
8918;-409;1
8918;-423;1
8918;-404;1
8918;-402;1
8918;-396;1
8918;-394;1
8918;-370;1
8918;-368;1
8918;-376;1
8918;-356;1
8918;-347;1
8918;-345;1
8918;-333;1
8918;-349;1
8918;-326;1
8918;-338;1
8918;-310;1
8918;-325;1
8918;-303;1
8918;-313;1
8918;-323;1
8918;-294;1
8918;-296;1
8918;-301;1
8918;-279;1
8918;-300;1
8918;-277;1
8984;-287;1
8984;-254;1
8984;-267;1
8984;-257;1
8984;-267;1
8984;-260;1
8984;-255;1
8984;-254;1
8984;-239;1
8984;-248;1
8984;-252;1
8984;-256;1
8984;-249;1
8984;-250;1
8984;-265;1
8984;-238;1
8984;-260;1
8984;-237;1
8984;-258;1
8984;-234;1
8984;-242;1
8984;-230;1
8984;-244;1
8984;-229;1
8984;-233;1
8984;-214;1
8984;-233;1
8984;-235;1
8984;-257;1
8984;-271;1
8984;-257;1
8984;-270;1
8984;-291;1
8984;-274;1
8984;-287;1
8984;-262;1
8984;-292;1
8984;-281;1
8984;-303;1
8984;-286;1
8984;-304;1
8984;-320;1
8984;-296;1
8984;-316;1
8984;-298;1
8984;-327;1
8984;-331;1
8984;-334;1
8984;-341;1
8984;-335;1
8984;-363;1
8984;-343;1
8984;-368;1
8984;-359;1
9021;-372;1
9021;-371;1
9021;-363;1
9021;-354;1
9021;-382;1
9021;-392;1
9021;-399;1
9021;-414;1
9021;-436;1
9021;-417;1
9021;-449;1
9021;-449;1
9021;-479;1
9021;-501;1
9021;-523;1
9021;-508;1
9021;-537;1
9021;-539;1
9021;-563;1
9021;-540;1
9021;-561;1
9021;-536;1
9021;-567;1
9021;-551;1
9021;-568;1
9021;-546;1
9021;-571;1
9021;-556;1
9021;-563;1
9021;-582;1
9021;-556;1
9021;-557;1
9021;-574;1
9021;-561;1
9021;-586;1
9021;-583;1
9021;-584;1
9021;-585;1
9021;-596;1
9021;-575;1
9021;-575;1
9021;-553;1
9021;-561;1
9021;-572;1
9021;-591;1
9021;-562;1
9021;-579;1
9021;-557;1
9073;-579;1
9073;-593;1
9073;-615;1
9073;-595;1
9073;-618;1
9073;-615;1
9073;-640;1
9073;-644;1
9073;-654;1
9073;-639;1
9073;-649;1
9073;-650;1
9073;-682;1
9073;-660;1
9073;-683;1
9073;-669;1
9073;-682;1
9073;-703;1
9073;-685;1
9073;-682;1
9073;-709;1
9073;-702;1
9073;-723;1
9073;-720;1
9073;-724;1
9073;-745;1
9073;-771;1
9073;-767;1
9073;-760;1
9073;-754;1
9073;-761;1
9073;-790;1
9073;-806;1
9073;-791;1
9073;-773;1
9073;-797;1
9073;-793;1
9073;-794;1
9073;-799;1
9073;-784;1
9073;-819;1
9073;-815;1
9073;-826;1
9073;-811;1
9073;-834;1
9073;-824;1
9073;-855;1
9073;-830;1
9124;-833;1
9124;-843;1
9124;-857;1
9124;-844;1
9124;-869;1
9124;-841;1
9124;-856;1
9124;-860;1
9124;-880;1
9124;-857;1
9124;-867;1
9124;-893;1
9124;-896;1
9124;-915;1
9124;-929;1
9124;-918;1
9124;-953;1
9124;-956;1
9124;-982;1
9124;-960;1
9124;-987;1
9124;-967;1
9124;-986;1
9124;-987;1
9124;-977;1
9124;-983;1
9124;-977;1
9124;-981;1
9124;-976;1
9124;-949;1
9124;-955;1
9124;-950;1
9124;-964;1
9124;-944;1
9124;-964;1
9124;-943;1
9124;-954;1
9124;-955;1
9124;-958;1
9124;-932;1
9124;-933;1
9124;-904;1
9124;-924;1
9124;-903;1
9124;-908;1
9124;-902;1
9124;-938;1
9124;-912;1
9124;-901;1
9124;-904;1
9124;-920;1
9124;-917;1
9124;-932;1
9124;-905;1
9179;-910;1
9179;-915;1
9179;-930;1
9179;-900;1
9179;-902;1
9179;-914;1
9179;-874;1
9179;-880;1
9179;-891;1
9179;-864;1
9179;-876;1
9179;-894;1
9179;-875;1
9179;-864;1
9179;-886;1
9179;-870;1
9179;-884;1
9179;-897;1
9179;-887;1
9179;-897;1
9179;-920;1
9179;-899;1
9179;-920;1
9179;-913;1
9179;-930;1
9179;-915;1
9179;-925;1
9179;-904;1
9179;-924;1
9179;-931;1
9179;-916;1
9179;-929;1
9179;-939;1
9179;-913;1
9179;-926;1
9179;-915;1
9179;-933;1
9179;-914;1
9179;-932;1
9179;-915;1
9179;-932;1
9179;-904;1
9179;-926;1
9179;-905;1
9179;-916;1
9179;-892;1
9179;-898;1
9179;-870;1
9179;-877;1
9179;-873;1
9179;-878;1
9179;-864;1
9179;-855;1
9179;-843;1
9235;-836;1
9235;-827;1
9235;-841;1
9235;-813;1
9235;-818;1
9235;-831;1
9235;-814;1
9235;-813;1
9235;-820;1
9235;-793;1
9235;-805;1
9235;-812;1
9235;-782;1
9235;-788;1
9235;-806;1
9235;-784;1
9235;-798;1
9235;-789;1
9235;-797;1
9235;-779;1
9235;-795;1
9235;-770;1
9235;-788;1
9235;-769;1
9235;-792;1
9235;-781;1
9235;-801;1
9235;-777;1
9235;-788;1
9235;-802;1
9235;-772;1
9235;-787;1
9235;-806;1
9235;-795;1
9235;-797;1
9235;-814;1
9235;-801;1
9235;-812;1
9235;-788;1
9235;-800;1
9235;-804;1
9235;-811;1
9235;-796;1
9235;-796;1
9235;-813;1
9235;-796;1
9235;-820;1
9235;-816;1
9235;-832;1
9235;-807;1
9235;-829;1
9235;-819;1
9235;-840;1
9235;-813;1
9286;-831;1
9286;-833;1
9286;-857;1
9286;-826;1
9286;-832;1
9286;-844;1
9286;-837;1
9286;-848;1
9286;-846;1
9286;-823;1
9286;-833;1
9286;-846;1
9286;-828;1
9286;-827;1
9286;-821;1
9286;-806;1
9286;-819;1
9286;-804;1
9286;-807;1
9286;-793;1
9286;-804;1
9286;-771;1
9286;-783;1
9286;-754;1
9286;-764;1
9286;-745;1
9286;-752;1
9286;-734;1
9286;-725;1
9286;-722;1
9286;-712;1
9286;-699;1
9286;-710;1
9286;-685;1
9286;-680;1
9286;-683;1
9286;-658;1
9286;-660;1
9286;-663;1
9286;-627;1
9286;-643;1
9286;-616;1
9286;-633;1
9286;-607;1
9286;-604;1
9286;-569;1
9286;-586;1
9286;-564;1
9338;-574;1
9338;-544;1
9338;-554;1
9338;-540;1
9338;-559;1
9338;-528;1
9338;-527;1
9338;-487;1
9338;-503;1
9338;-483;1
9338;-497;1
9338;-463;1
9338;-477;1
9338;-470;1
9338;-476;1
9338;-451;1
9338;-455;1
9338;-432;1
9338;-453;1
9338;-454;1
9338;-470;1
9338;-456;1
9338;-453;1
9338;-459;1
9338;-462;1
9338;-459;1
9338;-459;1
9338;-443;1
9338;-463;1
9338;-460;1
9338;-462;1
9338;-462;1
9338;-459;1
9338;-432;1
9338;-446;1
9338;-421;1
9338;-439;1
9338;-424;1
9338;-442;1
9338;-422;1
9338;-437;1
9338;-451;1
9338;-419;1
9338;-436;1
9338;-447;1
9338;-425;1
9338;-435;1
9338;-443;1
9338;-428;1
9338;-439;1
9338;-444;1
9338;-421;1
9338;-443;1
9338;-411;1
9390;-425;1
9390;-426;1
9390;-431;1
9390;-404;1
9390;-415;1
9390;-402;1
9390;-421;1
9390;-393;1
9390;-423;1
9390;-398;1
9390;-405;1
9390;-408;1
9390;-397;1
9390;-406;1
9390;-422;1
9390;-395;1
9390;-397;1
9390;-408;1
9390;-394;1
9390;-393;1
9390;-402;1
9390;-371;1
9390;-393;1
9390;-383;1
9390;-411;1
9390;-394;1
9390;-408;1
9390;-385;1
9390;-414;1
9390;-400;1
9390;-407;1
9390;-401;1
9390;-417;1
9390;-411;1
9390;-425;1
9390;-400;1
9390;-400;1
9390;-401;1
9390;-412;1
9390;-392;1
9390;-399;1
9390;-401;1
9390;-378;1
9390;-378;1
9390;-396;1
9390;-376;1
9390;-371;1
9390;-377;1
9390;-359;1
9390;-375;1
9390;-355;1
9390;-337;1
9390;-343;1
9390;-358;1
9441;-351;1
9441;-335;1
9441;-334;1
9441;-300;1
9441;-311;1
9441;-326;1
9441;-302;1
9441;-300;1
9441;-319;1
9441;-305;1
9441;-335;1
9441;-326;1
9441;-328;1
9441;-347;1
9441;-376;1
9441;-364;1
9441;-380;1
9441;-400;1
9441;-396;1
9441;-419;1
9441;-452;1
9441;-451;1
9441;-482;1
9441;-491;1
9441;-550;1
9441;-582;1
9441;-635;1
9441;-641;1
9441;-651;1
9441;-650;1
9441;-605;1
9441;-634;1
9441;-640;1
9441;-586;1
9441;-545;1
9441;-513;1
9441;-471;1
9441;-455;1
9441;-411;1
9441;-359;1
9441;-297;1
9441;-271;1
9494;-247;1
9494;-249;1
9494;-292;1
9494;-307;1
9494;-369;1
9494;-377;1
9494;-404;1
9494;-408;1
9494;-449;1
9494;-453;1
9494;-492;1
9494;-496;1
9494;-533;1
9494;-540;1
9494;-582;1
9494;-575;1
9494;-572;1
9494;-596;1
9494;-588;1
9494;-616;1
9494;-625;1
9494;-600;1
9494;-608;1
9494;-587;1
9494;-600;1
9494;-579;1
9494;-598;1
9494;-588;1
9494;-611;1
9494;-600;1
9494;-619;1
9494;-600;1
9494;-622;1
9494;-609;1
9494;-633;1
9494;-656;1
9494;-639;1
9494;-624;1
9494;-649;1
9494;-634;1
9494;-644;1
9494;-638;1
9494;-622;1
9494;-621;1
9494;-636;1
9494;-607;1
9494;-615;1
9494;-601;1
9494;-603;1
9494;-620;1
9494;-631;1
9494;-605;1
9494;-620;1
9494;-601;1
9550;-625;1
9550;-603;1
9550;-618;1
9550;-602;1
9550;-627;1
9550;-649;1
9550;-613;1
9550;-612;1
9550;-628;1
9550;-618;1
9550;-630;1
9550;-605;1
9550;-629;1
9550;-621;1
9550;-648;1
9550;-624;1
9550;-631;1
9550;-641;1
9550;-633;1
9550;-645;1
9550;-661;1
9550;-636;1
9550;-661;1
9550;-683;1
9550;-655;1
9550;-653;1
9550;-657;1
9550;-656;1
9550;-652;1
9550;-649;1
9550;-632;1
9550;-636;1
9550;-651;1
9550;-611;1
9550;-608;1
9550;-617;1
9550;-604;1
9550;-603;1
9550;-597;1
9550;-580;1
9550;-587;1
9550;-598;1
9550;-559;1
9550;-549;1
9550;-564;1
9550;-545;1
9550;-558;1
9550;-519;1
9550;-543;1
9550;-522;1
9550;-534;1
9550;-498;1
9550;-523;1
9550;-494;1
9600;-500;1
9600;-503;1
9600;-500;1
9600;-475;1
9600;-495;1
9600;-505;1
9600;-475;1
9600;-476;1
9600;-494;1
9600;-484;1
9600;-486;1
9600;-450;1
9600;-463;1
9600;-465;1
9600;-472;1
9600;-435;1
9600;-443;1
9600;-433;1
9600;-452;1
9600;-439;1
9600;-440;1
9600;-415;1
9600;-437;1
9600;-458;1
9600;-450;1
9600;-445;1
9600;-457;1
9600;-455;1
9600;-465;1
9600;-473;1
9600;-463;1
9600;-470;1
9600;-492;1
9600;-471;1
9600;-481;1
9600;-504;1
9600;-491;1
9600;-510;1
9600;-534;1
9600;-507;1
9600;-530;1
9600;-533;1
9600;-556;1
9600;-539;1
9600;-568;1
9600;-561;1
9600;-590;1
9600;-601;1
9600;-573;1
9600;-588;1
9600;-610;1
9600;-597;1
9600;-611;1
9600;-598;1
9671;-593;1
9671;-603;1
9671;-606;1
9671;-588;1
9671;-601;1
9671;-591;1
9671;-599;1
9671;-597;1
9671;-613;1
9671;-603;1
9671;-613;1
9671;-637;1
9671;-628;1
9671;-621;1
9671;-628;1
9671;-604;1
9671;-625;1
9671;-608;1
9671;-593;1
9671;-593;1
9671;-593;1
9671;-593;1
9671;-593;1
9671;-593;1
9671;-593;1
9671;-593;1
9671;-593;1
9671;-593;1
9671;-593;1
9671;-593;1
9671;-593;1
9671;-565;1
9671;-586;1
9671;-567;1
9671;-581;1
9671;-557;1
9671;-563;1
9671;-558;1
9671;-564;1
9671;-542;1
9671;-545;1
9671;-549;1
9671;-518;1
9671;-520;1
9671;-528;1
9671;-495;1
9671;-509;1
9671;-486;1
9671;-487;1
9671;-480;1
9671;-490;1
9671;-476;1
9671;-479;1
9671;-496;1
9671;-486;1
9671;-486;1
9671;-499;1
9671;-475;1
9671;-491;1
9671;-502;1
9707;-475;1
9707;-475;1
9707;-475;1
9707;-462;1
9707;-473;1
9707;-454;1
9707;-468;1
9707;-446;1
9707;-458;1
9707;-436;1
9707;-465;1
9707;-439;1
9707;-445;1
9707;-451;1
9707;-470;1
9707;-444;1
9707;-475;1
9707;-463;1
9707;-478;1
9707;-453;1
9707;-466;1
9707;-449;1
9707;-465;1
9707;-465;1
9707;-483;1
9707;-464;1
9707;-472;1
9707;-464;1
9707;-480;1
9707;-484;1
9707;-532;1
9707;-532;1
9707;-532;1
9707;-532;1
9707;-532;1
9707;-532;1
9707;-532;1
9707;-532;1
9707;-532;1
9707;-532;1
9707;-532;1
9707;-532;1
9707;-532;1
9707;-539;1
9707;-552;1
9707;-542;1
9707;-551;1
9707;-564;1
9707;-527;1
9707;-520;1
9707;-542;1
9707;-516;1
9707;-522;1
9707;-531;1
9757;-506;1
9757;-518;1
9757;-521;1
9757;-484;1
9757;-512;1
9757;-503;1
9757;-522;1
9757;-496;1
9757;-515;1
9757;-476;1
9757;-496;1
9757;-479;1
9757;-492;1
9757;-465;1
9757;-484;1
9757;-460;1
9757;-470;1
9757;-484;1
9757;-462;1
9757;-467;1
9757;-451;1
9757;-459;1
9757;-476;1
9757;-479;1
9757;-478;1
9757;-498;1
9757;-492;1
9757;-484;1
9757;-504;1
9757;-485;1
9757;-492;1
9757;-480;1
9757;-491;1
9757;-478;1
9757;-475;1
9757;-458;1
9757;-469;1
9757;-455;1
9757;-459;1
9757;-427;1
9757;-426;1
9757;-435;1
9757;-418;1
9757;-423;1
9757;-442;1
9757;-416;1
9757;-415;1
9757;-422;1
9808;-410;1
9808;-421;1
9808;-434;1
9808;-391;1
9808;-413;1
9808;-396;1
9808;-398;1
9808;-402;1
9808;-400;1
9808;-370;1
9808;-377;1
9808;-382;1
9808;-399;1
9808;-369;1
9808;-371;1
9808;-355;1
9808;-367;1
9808;-381;1
9808;-367;1
9808;-347;1
9808;-359;1
9808;-339;1
9808;-357;1
9808;-329;1
9808;-311;1
9808;-306;1
9808;-318;1
9808;-307;1
9808;-318;1
9808;-291;1
9808;-310;1
9808;-287;1
9808;-313;1
9808;-301;1
9808;-313;1
9808;-305;1
9808;-321;1
9808;-331;1
9808;-344;1
9808;-322;1
9808;-339;1
9808;-338;1
9858;-427;1
9858;-427;1
9858;-427;1
9858;-427;1
9858;-427;1
9858;-427;1
9858;-427;1
9858;-427;1
9858;-427;1
9858;-427;1
9858;-427;1
9858;-427;1
9858;-427;1
9858;-427;1
9858;-427;1
9858;-427;1
9858;-427;1
9858;-427;1
9858;-427;1
9858;-407;1
9858;-429;1
9858;-425;1
9858;-447;1
9858;-447;1
9858;-456;1
9858;-451;1
9858;-465;1
9858;-461;1
9858;-467;1
9858;-462;1
9858;-456;1
9858;-476;1
9858;-498;1
9858;-479;1
9858;-479;1
9858;-492;1
9858;-480;1
9858;-495;1
9858;-530;1
9858;-513;1
9858;-527;1
9858;-516;1
9858;-543;1
9858;-529;1
9858;-554;1
9858;-533;1
9858;-538;1
9858;-531;1
9858;-550;1
9858;-534;1
9858;-557;1
9858;-541;1
9858;-570;1
9858;-557;1
9858;-580;1
9858;-552;1
9858;-574;1
9858;-569;1
9858;-592;1
9858;-604;1
9858;-579;1
9858;-601;1
9858;-578;1
9858;-602;1
9858;-604;1
9858;-598;1
9909;-594;1
9909;-588;1
9909;-606;1
9909;-592;1
9909;-600;1
9909;-606;1
9909;-602;1
9909;-601;1
9909;-620;1
9909;-602;1
9909;-622;1
9909;-649;1
9909;-636;1
9909;-638;1
9909;-655;1
9909;-636;1
9909;-649;1
9909;-639;1
9909;-653;1
9909;-655;1
9909;-670;1
9909;-643;1
9909;-669;1
9909;-650;1
9909;-664;1
9909;-651;1
9909;-675;1
9909;-661;1
9909;-682;1
9909;-675;1
9909;-696;1
9909;-676;1
9909;-703;1
9909;-695;1
9909;-699;1
9909;-697;1
9909;-707;1
9909;-686;1
9909;-707;1
9909;-694;1
9909;-702;1
9909;-693;1
9909;-689;1
9909;-694;1
9909;-692;1
9909;-680;1
9909;-699;1
9909;-671;1
9966;-694;1
9966;-696;1
9966;-732;1
9966;-725;1
9966;-731;1
9966;-702;1
9966;-727;1
9966;-718;1
9966;-748;1
9966;-718;1
9966;-731;1
9966;-744;1
9966;-727;1
9966;-736;1
9966;-749;1
9966;-718;1
9966;-726;1
9966;-718;1
9966;-725;1
9966;-727;1
9966;-728;1
9966;-704;1
9966;-733;1
9966;-715;1
9966;-727;1
9966;-729;1
9966;-728;1
9966;-708;1
9966;-720;1
9966;-740;1
9966;-702;1
9966;-712;1
9966;-703;1
9966;-705;1
9966;-702;1
9966;-701;1
9966;-694;1
9966;-675;1
9966;-693;1
9966;-677;1
9966;-704;1
9966;-702;1
9966;-700;1
9966;-696;1
9966;-714;1
9966;-698;1
9966;-723;1
9966;-692;1
9966;-701;1
9966;-696;1
9966;-708;1
9966;-687;1
9966;-697;1
9966;-713;1
10015;-697;1
10015;-709;1
10015;-736;1
10015;-715;1
10015;-733;1
10015;-727;1
10015;-757;1
10015;-773;1
10015;-816;1
10015;-809;1
10015;-819;1
10015;-854;1
10015;-840;1
10015;-863;1
10015;-870;1
10015;-856;1
10015;-861;1
10015;-872;1
10015;-848;1
10015;-867;1
10015;-876;1
10015;-866;1
10015;-854;1
10015;-870;1
10015;-846;1
10015;-856;1
10015;-877;1
10015;-855;1
10015;-891;1
10015;-871;1
10015;-874;1
10015;-872;1
10015;-886;1
10015;-859;1
10015;-869;1
10015;-845;1
10015;-852;1
10015;-838;1
10015;-843;1
10015;-822;1
10015;-823;1
10015;-849;1
10015;-823;1
10015;-831;1
10015;-827;1
10015;-811;1
10015;-817;1
10015;-827;1
10065;-815;1
10065;-803;1
10065;-791;1
10065;-763;1
10065;-757;1
10065;-717;1
10065;-720;1
10065;-703;1
10065;-681;1
10065;-651;1
10065;-640;1
10065;-630;1
10065;-589;1
10065;-582;1
10065;-546;1
10065;-533;1
10065;-525;1
10065;-532;1
10065;-496;1
10065;-461;1
10065;-449;1
10065;-398;1
10065;-390;1
10065;-349;1
10065;-331;1
10065;-301;1
10065;-307;1
10065;-254;1
10065;-254;1
10065;-237;1
10065;-93;1
10065;-55;1
10065;-78;1
10065;-145;1
10065;-84;1
10065;-35;1
10065;-23;1
10065;57;1
10065;-9;1
10065;26;1
10065;28;1
10065;64;1
10065;72;1
10065;87;1
10065;94;1
10065;128;1
10065;147;1
10065;157;1
10120;191;1
10120;132;1
10120;197;1
10120;247;1
10120;263;1
10120;330;1
10120;291;1
10120;285;1
10120;295;1
10120;325;1
10120;322;1
10120;339;1
10120;356;1
10120;391;1
10120;394;1
10120;419;1
10120;399;1
10120;348;1
10120;408;1
10120;446;1
10120;420;1
10120;502;1
10120;411;1
10120;411;1
10120;397;1
10120;419;1
10120;446;1
10120;518;1
10120;486;1
10120;542;1
10120;593;1
10120;676;1
10120;732;1
10120;715;1
10120;778;1
10120;827;1
10120;919;1
10120;1052;1
10120;1026;1
10120;1056;1
10120;1045;1
10120;1059;1
10120;1035;1
10120;986;1
10120;951;1
10120;980;1
10120;967;1
10120;980;1
10120;953;1
10120;888;1
10120;930;1
10120;942;1
10120;921;1
10120;952;1
10172;864;1
10172;857;1
10172;869;1
10172;914;1
10172;915;1
10172;917;1
10172;921;1
10172;931;1
10172;922;1
10172;963;1
10172;955;1
10172;893;1
10172;947;1
10172;946;1
10172;943;1
10172;1024;1
10172;919;1
10172;936;1
10172;891;1
10172;912;1
10172;886;1
10172;902;1
10172;890;1
10172;921;1
10172;889;1
10172;928;1
10172;916;1
10172;865;1
10172;909;1
10172;927;1
10172;913;1
10172;1006;1
10172;930;1
10172;943;1
10172;921;1
10172;918;1
10172;946;1
10172;936;1
10172;925;1
10172;950;1
10172;945;1
10172;954;1
10172;959;1
10172;880;1
10172;935;1
10172;954;1
10172;944;1
10172;1026;1
10172;935;1
10172;919;1
10172;911;1
10172;932;1
10172;900;1
10172;919;1
10223;914;1
10223;899;1
10223;867;1
10223;877;1
10223;851;1
10223;799;1
10223;818;1
10223;855;1
10223;850;1
10223;938;1
10223;837;1
10223;818;1
10223;828;1
10223;811;1
10223;803;1
10223;808;1
10223;771;1
10223;781;1
10223;753;1
10223;627;1
10223;594;1
10223;620;1
10223;608;1
10223;597;1
10223;605;1
10223;595;1
10223;580;1
10223;588;1
10223;574;1
10223;550;1
10223;555;1
10223;523;1
