18;-641;1
18;-632;1
18;-635;1
18;-613;1
18;-638;1
18;-626;1
18;-649;1
18;-626;1
18;-625;1
18;-580;1
18;-600;1
18;-580;1
18;-592;1
18;-589;1
18;-595;1
18;-577;1
18;-566;1
18;-565;1
18;-577;1
18;-582;1
18;-589;1
18;-562;1
18;-564;1
18;-568;1
18;-545;1
18;-550;1
18;-561;1
18;-536;1
18;-528;1
18;-499;1
18;-506;1
18;-511;1
18;-524;1
18;-506;1
18;-522;1
18;-491;1
18;-493;1
18;-498;1
18;-528;1
18;-499;1
18;-502;1
18;-470;1
69;-478;1
69;-464;1
69;-489;1
69;-492;1
69;-517;1
69;-523;1
69;-492;1
69;-530;1
69;-525;1
69;-524;1
69;-519;1
69;-500;1
69;-483;1
69;-472;1
69;-447;1
69;-460;1
69;-471;1
69;-479;1
69;-456;1
69;-456;1
69;-485;1
69;-481;1
69;-518;1
69;-518;1
69;-530;1
69;-530;1
69;-530;1
69;-530;1
69;-530;1
69;-530;1
69;-530;1
69;-530;1
69;-530;1
69;-530;1
69;-530;1
69;-530;1
69;-530;1
69;-528;1
69;-536;1
69;-493;1
69;-499;1
69;-506;1
69;-515;1
69;-490;1
69;-503;1
69;-485;1
69;-503;1
69;-489;1
69;-506;1
69;-511;1
69;-511;1
69;-474;1
69;-486;1
69;-497;1
69;-515;1
69;-496;1
69;-511;1
69;-490;1
69;-504;1
69;-499;1
69;-521;1
69;-536;1
69;-523;1
69;-521;1
69;-510;1
69;-511;1
125;-509;1
125;-513;1
125;-534;1
125;-511;1
125;-499;1
125;-499;1
125;-493;1
125;-501;1
125;-522;1
125;-501;1
125;-508;1
125;-511;1
125;-486;1
125;-490;1
125;-523;1
125;-508;1
125;-513;1
125;-485;1
125;-507;1
125;-487;1
125;-513;1
125;-501;1
125;-520;1
125;-524;1
125;-493;1
125;-520;1
125;-542;1
125;-535;1
125;-559;1
125;-534;1
125;-541;1
125;-496;1
125;-507;1
125;-496;1
125;-525;1
125;-497;1
125;-493;1
125;-488;1
125;-495;1
125;-498;1
125;-521;1
125;-545;1
125;-533;1
125;-501;1
125;-505;1
125;-491;1
125;-515;1
125;-502;1
187;-513;1
187;-513;1
187;-510;1
187;-496;1
187;-508;1
187;-541;1
187;-525;1
187;-522;1
187;-519;1
187;-486;1
187;-506;1
187;-481;1
187;-487;1
187;-502;1
187;-511;1
187;-464;1
187;-483;1
187;-510;1
187;-517;1
187;-524;1
187;-532;1
187;-492;1
187;-493;1
187;-500;1
187;-489;1
187;-530;1
187;-504;1
187;-508;1
187;-512;1
187;-514;1
187;-511;1
187;-499;1
187;-520;1
187;-511;1
187;-502;1
187;-503;1
187;-498;1
187;-502;1
187;-525;1
187;-501;1
187;-506;1
187;-514;1
187;-496;1
187;-501;1
187;-536;1
187;-513;1
187;-522;1
187;-530;1
187;-509;1
187;-517;1
187;-530;1
187;-508;1
187;-535;1
187;-522;1
187;-507;1
187;-510;1
187;-526;1
187;-506;1
187;-511;1
187;-521;1
237;-492;1
237;-492;1
237;-486;1
237;-482;1
237;-512;1
237;-526;1
237;-504;1
237;-519;1
237;-513;1
237;-533;1
237;-551;1
237;-555;1
237;-553;1
237;-553;1
237;-529;1
237;-533;1
237;-536;1
237;-541;1
237;-529;1
237;-533;1
237;-542;1
237;-519;1
237;-529;1
237;-536;1
237;-558;1
237;-533;1
237;-538;1
237;-520;1
237;-541;1
237;-528;1
237;-538;1
237;-548;1
237;-562;1
237;-527;1
237;-549;1
237;-535;1
237;-554;1
237;-551;1
237;-560;1
237;-539;1
237;-545;1
237;-519;1
237;-552;1
237;-553;1
237;-561;1
237;-527;1
237;-537;1
237;-552;1
237;-536;1
237;-560;1
237;-546;1
237;-567;1
237;-543;1
237;-531;1
288;-536;1
288;-549;1
288;-559;1
288;-535;1
288;-551;1
288;-521;1
288;-530;1
288;-515;1
288;-537;1
288;-522;1
288;-521;1
288;-526;1
288;-497;1
288;-495;1
288;-508;1
288;-477;1
288;-502;1
288;-483;1
288;-473;1
288;-466;1
288;-483;1
288;-466;1
288;-480;1
288;-491;1
288;-462;1
288;-469;1
288;-482;1
288;-475;1
288;-518;1
288;-498;1
288;-515;1
288;-490;1
288;-511;1
288;-490;1
288;-524;1
288;-514;1
288;-538;1
288;-501;1
288;-511;1
288;-498;1
288;-519;1
288;-522;1
288;-532;1
288;-520;1
288;-529;1
288;-500;1
288;-507;1
288;-504;1
342;-537;1
342;-518;1
342;-515;1
342;-495;1
342;-503;1
342;-512;1
342;-493;1
342;-503;1
342;-515;1
342;-478;1
342;-495;1
342;-527;1
342;-520;1
342;-536;1
342;-547;1
342;-522;1
342;-534;1
342;-512;1
342;-529;1
342;-514;1
342;-530;1
342;-491;1
342;-497;1
342;-507;1
342;-496;1
342;-512;1
342;-537;1
342;-520;1
342;-527;1
342;-530;1
342;-555;1
342;-537;1
342;-565;1
342;-551;1
342;-572;1
342;-562;1
342;-577;1
342;-585;1
342;-589;1
342;-598;1
342;-597;1
342;-610;1
342;-608;1
342;-627;1
342;-656;1
342;-613;1
342;-602;1
342;-577;1
342;-566;1
342;-521;1
342;-510;1
342;-459;1
342;-438;1
342;-396;1
394;-403;1
394;-345;1
394;-310;1
394;-229;1
394;-238;1
394;-244;1
394;-222;1
394;-247;1
394;-294;1
394;-316;1
394;-282;1
394;-247;1
394;-317;1
394;-355;1
394;-370;1
394;-394;1
394;-454;1
394;-464;1
394;-507;1
394;-500;1
394;-523;1
394;-595;1
394;-522;1
394;-536;1
394;-537;1
394;-465;1
394;-542;1
394;-507;1
394;-514;1
394;-524;1
394;-520;1
394;-526;1
394;-540;1
394;-499;1
394;-510;1
394;-500;1
394;-521;1
394;-568;1
394;-532;1
394;-505;1
394;-502;1
394;-442;1
394;-496;1
394;-522;1
394;-540;1
394;-517;1
394;-535;1
394;-517;1
446;-539;1
446;-526;1
446;-545;1
446;-528;1
446;-533;1
446;-567;1
446;-525;1
446;-507;1
446;-524;1
446;-438;1
446;-528;1
446;-508;1
446;-521;1
446;-509;1
446;-540;1
446;-542;1
446;-538;1
446;-531;1
446;-524;1
446;-522;1
446;-539;1
446;-596;1
446;-530;1
446;-526;1
446;-500;1
446;-431;1
446;-527;1
446;-512;1
446;-532;1
446;-520;1
446;-526;1
446;-526;1
446;-533;1
446;-514;1
446;-548;1
446;-535;1
446;-538;1
446;-581;1
446;-538;1
446;-508;1
446;-526;1
446;-443;1
446;-524;1
446;-518;1
446;-519;1
446;-497;1
446;-642;1
446;-619;1
500;-607;1
500;-595;1
500;-575;1
500;-545;1
500;-551;1
500;-576;1
500;-584;1
500;-560;1
500;-572;1
500;-552;1
500;-566;1
500;-562;1
500;-570;1
500;-573;1
500;-578;1
500;-544;1
500;-544;1
500;-550;1
500;-533;1
500;-532;1
500;-538;1
500;-519;1
500;-523;1
500;-516;1
500;-535;1
500;-543;1
500;-562;1
500;-534;1
500;-549;1
500;-529;1
500;-534;1
500;-534;1
500;-555;1
500;-535;1
500;-558;1
500;-524;1
500;-528;1
500;-537;1
500;-558;1
500;-536;1
500;-547;1
500;-559;1
500;-534;1
500;-550;1
500;-569;1
500;-567;1
500;-568;1
500;-565;1
500;-573;1
500;-555;1
500;-579;1
500;-568;1
500;-575;1
500;-586;1
500;-573;1
500;-548;1
500;-566;1
500;-546;1
500;-567;1
500;-555;1
551;-555;1
551;-558;1
551;-567;1
551;-541;1
551;-562;1
551;-582;1
551;-551;1
551;-558;1
551;-564;1
551;-547;1
551;-562;1
551;-579;1
551;-565;1
551;-571;1
551;-573;1
551;-558;1
551;-577;1
551;-567;1
551;-567;1
551;-571;1
551;-582;1
551;-550;1
551;-562;1
551;-553;1
551;-580;1
551;-557;1
551;-565;1
551;-536;1
551;-539;1
551;-552;1
551;-546;1
551;-554;1
551;-551;1
551;-555;1
551;-548;1
551;-571;1
551;-573;1
551;-577;1
551;-599;1
551;-579;1
551;-577;1
551;-566;1
551;-573;1
551;-584;1
551;-604;1
551;-590;1
551;-606;1
551;-585;1
603;-599;1
603;-585;1
603;-602;1
603;-588;1
603;-598;1
603;-564;1
603;-576;1
603;-557;1
603;-578;1
603;-562;1
603;-581;1
603;-567;1
603;-581;1
603;-590;1
603;-616;1
603;-616;1
603;-641;1
603;-622;1
603;-628;1
603;-629;1
603;-638;1
603;-609;1
603;-612;1
603;-623;1
603;-591;1
603;-578;1
603;-569;1
603;-591;1
603;-576;1
603;-578;1
603;-566;1
603;-550;1
603;-554;1
603;-522;1
603;-543;1
603;-523;1
603;-530;1
603;-499;1
603;-510;1
603;-490;1
603;-509;1
603;-494;1
603;-514;1
603;-504;1
603;-511;1
603;-495;1
603;-524;1
603;-505;1
659;-517;1
659;-483;1
659;-495;1
659;-462;1
659;-470;1
659;-450;1
659;-474;1
659;-447;1
659;-453;1
659;-426;1
659;-440;1
659;-425;1
659;-449;1
659;-425;1
659;-455;1
659;-429;1
659;-426;1
659;-448;1
659;-464;1
659;-448;1
659;-465;1
659;-440;1
659;-440;1
659;-431;1
659;-435;1
659;-442;1
659;-451;1
659;-437;1
659;-459;1
659;-448;1
659;-472;1
659;-457;1
659;-478;1
659;-454;1
659;-464;1
659;-461;1
659;-439;1
659;-448;1
659;-466;1
659;-442;1
659;-462;1
659;-443;1
659;-455;1
659;-430;1
659;-462;1
659;-465;1
659;-483;1
659;-458;1
659;-460;1
659;-468;1
659;-486;1
659;-470;1
659;-490;1
659;-473;1
659;-482;1
659;-448;1
659;-471;1
659;-453;1
659;-481;1
659;-462;1
711;-467;1
711;-468;1
711;-471;1
711;-457;1
711;-464;1
711;-479;1
711;-470;1
711;-464;1
711;-486;1
711;-458;1
711;-468;1
711;-480;1
711;-467;1
711;-468;1
711;-470;1
711;-446;1
711;-454;1
711;-471;1
711;-449;1
711;-455;1
711;-463;1
711;-442;1
711;-451;1
711;-469;1
711;-480;1
711;-490;1
711;-507;1
711;-477;1
711;-497;1
711;-481;1
711;-501;1
711;-484;1
711;-504;1
711;-472;1
711;-474;1
711;-455;1
711;-484;1
711;-469;1
711;-486;1
711;-473;1
711;-500;1
711;-479;1
711;-489;1
711;-513;1
711;-539;1
711;-510;1
711;-517;1
711;-492;1
771;-490;1
771;-486;1
771;-493;1
771;-481;1
771;-502;1
771;-474;1
771;-492;1
771;-488;1
771;-529;1
771;-517;1
771;-518;1
771;-522;1
771;-492;1
771;-500;1
771;-518;1
771;-504;1
771;-519;1
771;-486;1
771;-484;1
771;-481;1
771;-499;1
771;-476;1
771;-481;1
771;-494;1
771;-465;1
771;-472;1
771;-496;1
771;-485;1
771;-500;1
771;-517;1
771;-500;1
771;-517;1
771;-500;1
771;-513;1
771;-535;1
771;-531;1
771;-535;1
771;-517;1
771;-521;1
771;-510;1
771;-504;1
771;-512;1
771;-507;1
771;-494;1
771;-493;1
771;-472;1
771;-485;1
771;-498;1
771;-488;1
771;-479;1
771;-489;1
771;-463;1
771;-477;1
771;-462;1
822;-483;1
822;-476;1
822;-478;1
822;-458;1
822;-481;1
822;-465;1
822;-480;1
822;-479;1
822;-492;1
822;-463;1
822;-461;1
822;-479;1
822;-445;1
822;-445;1
822;-445;1
822;-445;1
822;-445;1
822;-445;1
822;-445;1
822;-445;1
822;-445;1
822;-445;1
822;-445;1
822;-445;1
822;-445;1
822;-436;1
822;-466;1
822;-459;1
822;-486;1
822;-497;1
822;-508;1
822;-528;1
822;-535;1
822;-563;1
822;-549;1
822;-531;1
822;-506;1
822;-510;1
822;-518;1
822;-496;1
822;-512;1
822;-482;1
822;-481;1
822;-478;1
822;-482;1
822;-466;1
822;-486;1
822;-461;1
822;-481;1
822;-454;1
822;-482;1
822;-465;1
822;-491;1
822;-473;1
822;-488;1
822;-437;1
822;-467;1
822;-458;1
822;-482;1
822;-460;1
876;-469;1
876;-465;1
876;-482;1
876;-457;1
876;-474;1
876;-468;1
876;-461;1
876;-460;1
876;-467;1
876;-439;1
876;-453;1
876;-457;1
876;-467;1
876;-456;1
876;-454;1
876;-423;1
876;-439;1
876;-450;1
876;-432;1
876;-421;1
876;-427;1
876;-413;1
876;-412;1
876;-422;1
876;-430;1
876;-427;1
876;-432;1
876;-411;1
876;-435;1
876;-417;1
876;-442;1
876;-453;1
876;-479;1
876;-469;1
876;-469;1
876;-491;1
876;-483;1
876;-491;1
876;-499;1
876;-479;1
876;-492;1
876;-465;1
876;-465;1
876;-464;1
876;-476;1
876;-444;1
876;-457;1
876;-443;1
876;-439;1
876;-425;1
876;-451;1
876;-427;1
876;-447;1
876;-435;1
932;-432;1
932;-441;1
932;-453;1
932;-435;1
932;-444;1
932;-421;1
932;-427;1
932;-409;1
932;-423;1
932;-427;1
932;-462;1
932;-442;1
932;-430;1
932;-430;1
932;-430;1
932;-430;1
932;-430;1
932;-430;1
932;-430;1
932;-430;1
932;-430;1
932;-430;1
932;-430;1
932;-430;1
932;-430;1
932;-389;1
932;-399;1
932;-380;1
932;-395;1
932;-382;1
932;-383;1
932;-379;1
932;-383;1
932;-355;1
932;-378;1
932;-379;1
932;-384;1
932;-363;1
932;-380;1
932;-358;1
932;-374;1
932;-390;1
932;-386;1
932;-413;1
932;-396;1
932;-398;1
932;-388;1
932;-398;1
932;-380;1
932;-389;1
932;-395;1
932;-376;1
932;-361;1
932;-361;1
932;-359;1
932;-357;1
932;-366;1
932;-336;1
932;-356;1
932;-342;1
984;-359;1
984;-348;1
984;-374;1
984;-345;1
984;-323;1
984;-334;1
984;-310;1
984;-326;1
984;-340;1
984;-321;1
984;-323;1
984;-332;1
984;-303;1
984;-310;1
984;-342;1
984;-316;1
984;-332;1
984;-310;1
984;-319;1
984;-327;1
984;-345;1
984;-337;1
984;-355;1
984;-371;1
984;-355;1
984;-385;1
984;-376;1
984;-420;1
984;-434;1
984;-447;1
984;-444;1
984;-459;1
984;-480;1
984;-487;1
984;-490;1
984;-493;1
984;-484;1
984;-499;1
984;-516;1
984;-486;1
984;-472;1
984;-459;1
984;-439;1
984;-427;1
984;-420;1
984;-370;1
984;-333;1
984;-307;1
984;-265;1
984;-247;1
984;-224;1
984;-144;1
984;-119;1
984;-94;1
1040;-96;1
1040;-93;1
1040;-125;1
1040;-129;1
1040;-108;1
1040;-68;1
1040;-144;1
1040;-202;1
1040;-252;1
1040;-249;1
1040;-309;1
1040;-325;1
1040;-379;1
1040;-383;1
1040;-414;1
1040;-512;1
1040;-441;1
1040;-427;1
1040;-431;1
1040;-370;1
1040;-437;1
1040;-408;1
1040;-417;1
1040;-418;1
1040;-405;1
1040;-420;1
1040;-442;1
1040;-416;1
1040;-404;1
1040;-423;1
1040;-411;1
1040;-485;1
1040;-441;1
1040;-401;1
1040;-408;1
1040;-306;1
1040;-391;1
1040;-368;1
1040;-388;1
1040;-348;1
1040;-350;1
1040;-317;1
1091;-333;1
1091;-312;1
1091;-346;1
1091;-341;1
1091;-369;1
1091;-433;1
1091;-398;1
1091;-379;1
1091;-398;1
1091;-311;1
1091;-397;1
1091;-391;1
1091;-399;1
1091;-371;1
1091;-389;1
1091;-372;1
1091;-389;1
1091;-394;1
1091;-381;1
1091;-370;1
1091;-380;1
1091;-434;1
1091;-374;1
1091;-368;1
1091;-352;1
1091;-269;1
1091;-365;1
1091;-354;1
1091;-375;1
1091;-391;1
1091;-387;1
1091;-404;1
1091;-423;1
1091;-412;1
1091;-446;1
1091;-445;1
1091;-463;1
1091;-513;1
1091;-476;1
1091;-441;1
1091;-464;1
1091;-393;1
1091;-492;1
1091;-521;1
1091;-541;1
1091;-528;1
1091;-682;1
1091;-668;1
1091;-665;1
1091;-676;1
1091;-681;1
1091;-680;1
1091;-723;1
1091;-717;1
1091;-746;1
1091;-736;1
1091;-754;1
1091;-620;1
1091;-610;1
1091;-669;1
1146;-683;1
1146;-705;1
1146;-748;1
1146;-759;1
1146;-770;1
1146;-802;1
1146;-816;1
1146;-832;1
1146;-827;1
1146;-908;1
1146;-843;1
1146;-799;1
1146;-812;1
1146;-734;1
1146;-849;1
1146;-817;1
1146;-845;1
1146;-829;1
1146;-842;1
1146;-853;1
1146;-864;1
1146;-841;1
1146;-850;1
1146;-853;1
1146;-809;1
1146;-878;1
1146;-809;1
1146;-764;1
1146;-775;1
1146;-691;1
1146;-777;1
1146;-764;1
1146;-778;1
1146;-757;1
1146;-773;1
1146;-782;1
1146;-755;1
1146;-772;1
1146;-753;1
1146;-770;1
1146;-763;1
1146;-842;1
1146;-789;1
1146;-758;1
1146;-759;1
1146;-673;1
1146;-722;1
1146;-725;1
1146;-706;1
1146;-706;1
1146;-717;1
1146;-693;1
1146;-715;1
1146;-712;1
1225;-726;1
1225;-737;1
1225;-758;1
1225;-802;1
1225;-756;1
1225;-767;1
1225;-751;1
1225;-683;1
1225;-768;1
1225;-724;1
1225;-746;1
1225;-735;1
1225;-736;1
1225;-715;1
1225;-704;1
1225;-674;1
1225;-674;1
1225;-646;1
1225;-664;1
1225;-713;1
1225;-673;1
1225;-628;1
1225;-629;1
1225;-633;1
1225;-718;1
1225;-648;1
1225;-648;1
1225;-615;1
1225;-617;1
1225;-630;1
1225;-625;1
1225;-625;1
1225;-638;1
1225;-607;1
1225;-600;1
1225;-570;1
1225;-571;1
1225;-542;1
1225;-549;1
1225;-535;1
1225;-528;1
1225;-539;1
1225;-491;1
1225;-483;1
1225;-485;1
1225;-458;1
1225;-466;1
1225;-468;1
1250;-429;1
1250;-436;1
1250;-450;1
1250;-418;1
1250;-415;1
1250;-396;1
1250;-422;1
1250;-404;1
1250;-408;1
1250;-392;1
1250;-422;1
1250;-431;1
1250;-408;1
1250;-426;1
1250;-440;1
1250;-434;1
1250;-449;1
1250;-427;1
1250;-436;1
1250;-428;1
1250;-430;1
1250;-418;1
1250;-405;1
1250;-414;1
1250;-409;1
1250;-401;1
1250;-424;1
1250;-412;1
1250;-438;1
1250;-420;1
1250;-432;1
1250;-419;1
1250;-430;1
1250;-402;1
1250;-425;1
1250;-407;1
1250;-421;1
1250;-408;1
1250;-413;1
1250;-375;1
1250;-405;1
1250;-402;1
1250;-439;1
1250;-426;1
1250;-447;1
1250;-442;1
1250;-451;1
1250;-463;1
1301;-458;1
1301;-484;1
1301;-491;1
1301;-477;1
1301;-503;1
1301;-485;1
1301;-503;1
1301;-480;1
1301;-491;1
1301;-462;1
1301;-461;1
1301;-431;1
1301;-441;1
1301;-454;1
1301;-479;1
1301;-471;1
1301;-501;1
1301;-503;1
1301;-517;1
1301;-520;1
1301;-540;1
1301;-530;1
1301;-537;1
1301;-557;1
1301;-524;1
1301;-510;1
1301;-524;1
1301;-502;1
1301;-532;1
1301;-516;1
1301;-512;1
1301;-527;1
1301;-546;1
1301;-537;1
1301;-555;1
1301;-521;1
1301;-535;1
1301;-544;1
1301;-544;1
1301;-527;1
1301;-560;1
1301;-542;1
1301;-546;1
1301;-523;1
1301;-541;1
1301;-524;1
1301;-543;1
1301;-520;1
1301;-540;1
1301;-535;1
1301;-535;1
1301;-523;1
1301;-545;1
1301;-535;1
1351;-511;1
1351;-542;1
1351;-527;1
1351;-547;1
1351;-533;1
1351;-557;1
1351;-569;1
1351;-539;1
1351;-549;1
1351;-529;1
1351;-548;1
1351;-543;1
1351;-553;1
1351;-555;1
1351;-563;1
1351;-529;1
1351;-545;1
1351;-534;1
1351;-547;1
1351;-536;1
1351;-550;1
1351;-532;1
1351;-554;1
1351;-567;1
1351;-541;1
1351;-558;1
1351;-562;1
1351;-541;1
1351;-551;1
1351;-527;1
1351;-533;1
1351;-542;1
1351;-564;1
1351;-539;1
1351;-546;1
1351;-523;1
1351;-529;1
1351;-535;1
1351;-550;1
1351;-539;1
1351;-555;1
1351;-563;1
1351;-581;1
1351;-556;1
1351;-595;1
1351;-579;1
1351;-586;1
1351;-598;1
1401;-579;1
1401;-573;1
1401;-583;1
1401;-568;1
1401;-598;1
1401;-593;1
1401;-590;1
1401;-583;1
1401;-616;1
1401;-601;1
1401;-613;1
1401;-588;1
1401;-574;1
1401;-569;1
1401;-578;1
1401;-561;1
1401;-584;1
1401;-601;1
1401;-580;1
1401;-572;1
1401;-588;1
1401;-568;1
1401;-590;1
1401;-581;1
1401;-610;1
1401;-594;1
1401;-602;1
1401;-592;1
1401;-614;1
1401;-637;1
1401;-597;1
1401;-610;1
1401;-629;1
1401;-609;1
1401;-616;1
1401;-642;1
1401;-646;1
1401;-649;1
1401;-621;1
1401;-645;1
1401;-648;1
1401;-663;1
1401;-665;1
1401;-663;1
1401;-678;1
1401;-619;1
1401;-600;1
1401;-585;1
1454;-664;1
1454;-664;1
1454;-664;1
1454;-664;1
1454;-664;1
1454;-664;1
1454;-664;1
1454;-664;1
1454;-664;1
1454;-664;1
1454;-664;1
1454;-664;1
1454;-664;1
1454;-677;1
1454;-703;1
1454;-678;1
1454;-694;1
1454;-672;1
1454;-688;1
1454;-652;1
1454;-655;1
1454;-628;1
1454;-616;1
1454;-606;1
1454;-589;1
1454;-616;1
1454;-628;1
1454;-595;1
1454;-608;1
1454;-608;1
1454;-628;1
1454;-611;1
1454;-650;1
1454;-646;1
1454;-650;1
1454;-649;1
1454;-656;1
1454;-644;1
1454;-653;1
1454;-629;1
1454;-635;1
1454;-637;1
1454;-599;1
1454;-586;1
1454;-612;1
1454;-597;1
1454;-608;1
1454;-599;1
1454;-597;1
1454;-593;1
1454;-598;1
1454;-576;1
1454;-601;1
1454;-609;1
1454;-577;1
1454;-579;1
1454;-591;1
1454;-572;1
1454;-578;1
1454;-592;1
1509;-581;1
1509;-596;1
1509;-597;1
1509;-586;1
1509;-616;1
1509;-596;1
1509;-605;1
1509;-572;1
1509;-566;1
1509;-543;1
1509;-562;1
1509;-558;1
1509;-593;1
1509;-553;1
1509;-564;1
1509;-530;1
1509;-535;1
1509;-557;1
1509;-569;1
1509;-570;1
1509;-589;1
1509;-556;1
1509;-548;1
1509;-568;1
1509;-579;1
1509;-586;1
1509;-569;1
1509;-556;1
1509;-570;1
1509;-548;1
1509;-556;1
1509;-582;1
1509;-586;1
1509;-552;1
1509;-573;1
1509;-549;1
1509;-546;1
1509;-539;1
1509;-552;1
1509;-515;1
1509;-515;1
1509;-466;1
1509;-487;1
1509;-505;1
1509;-533;1
1509;-539;1
1509;-560;1
1509;-587;1
1509;-569;1
1509;-591;1
1509;-623;1
1509;-613;1
1509;-605;1
1509;-598;1
1567;-574;1
1567;-584;1
1567;-549;1
1567;-546;1
1567;-541;1
1567;-547;1
1567;-504;1
1567;-521;1
1567;-530;1
1567;-543;1
1567;-530;1
1567;-519;1
1567;-505;1
1567;-497;1
1567;-496;1
1567;-470;1
1567;-500;1
1567;-503;1
1567;-461;1
1567;-445;1
1567;-462;1
1567;-447;1
1567;-467;1
1567;-476;1
1567;-456;1
1567;-460;1
1567;-460;1
1567;-448;1
1567;-489;1
1567;-478;1
1567;-486;1
1567;-484;1
1567;-490;1
1567;-455;1
1567;-465;1
1567;-476;1
1567;-469;1
1567;-464;1
1567;-476;1
1567;-442;1
1567;-433;1
1567;-424;1
1567;-437;1
1567;-420;1
1567;-440;1
1567;-405;1
1567;-409;1
1567;-404;1
1567;-417;1
1567;-411;1
1567;-433;1
1567;-412;1
1567;-404;1
1567;-409;1
1617;-403;1
1617;-416;1
1617;-441;1
1617;-417;1
1617;-426;1
1617;-399;1
1617;-394;1
1617;-404;1
1617;-416;1
1617;-399;1
1617;-413;1
1617;-378;1
1617;-401;1
1617;-386;1
1617;-402;1
1617;-371;1
1617;-379;1
1617;-389;1
1617;-368;1
1617;-368;1
1617;-377;1
1617;-372;1
1617;-382;1
1617;-389;1
1617;-368;1
1617;-377;1
1617;-403;1
1617;-399;1
1617;-417;1
1617;-436;1
1617;-414;1
1617;-435;1
1617;-474;1
1617;-476;1
1617;-508;1
1617;-508;1
1617;-507;1
1617;-504;1
1617;-469;1
1617;-441;1
1617;-416;1
1617;-411;1
1617;-368;1
1617;-322;1
1617;-295;1
1617;-235;1
1617;-220;1
1617;-223;1
1668;-174;1
1668;-130;1
1668;-67;1
1668;-20;1
1668;-40;1
1668;-27;1
1668;-35;1
1668;-46;1
1668;-72;1
1668;-61;1
1668;-92;1
1668;-90;1
1668;-151;1
1668;-170;1
1668;-241;1
1668;-257;1
1668;-295;1
1668;-291;1
1668;-334;1
1668;-318;1
1668;-337;1
1668;-292;1
1668;-273;1
1668;-260;1
1668;-257;1
1668;-221;1
1668;-233;1
1668;-203;1
1668;-202;1
1668;-221;1
1668;-221;1
1668;-231;1
1668;-248;1
1668;-212;1
1668;-237;1
1668;-220;1
1668;-222;1
1668;-212;1
1668;-224;1
1668;-208;1
1668;-206;1
1668;-193;1
1668;-179;1
1668;-197;1
1668;-217;1
1668;-200;1
1668;-199;1
1668;-197;1
1668;-174;1
1668;-163;1
1668;-158;1
1668;-140;1
1668;-167;1
1668;-143;1
1725;-157;1
1725;-148;1
1725;-186;1
1725;-187;1
1725;-219;1
1725;-208;1
1725;-225;1
1725;-226;1
1725;-245;1
1725;-237;1
1725;-253;1
1725;-232;1
1725;-240;1
1725;-218;1
1725;-240;1
1725;-219;1
1725;-226;1
1725;-218;1
1725;-228;1
1725;-229;1
1725;-246;1
1725;-226;1
1725;-256;1
1725;-260;1
1725;-286;1
1725;-298;1
1725;-335;1
1725;-338;1
1725;-384;1
1725;-382;1
1725;-401;1
1725;-413;1
1725;-433;1
1725;-402;1
1725;-393;1
1725;-409;1
1725;-395;1
1725;-403;1
1725;-433;1
1725;-419;1
1725;-444;1
1725;-476;1
1725;-498;1
1725;-545;1
1725;-595;1
1725;-597;1
1725;-613;1
1725;-624;1
1725;-623;1
1725;-603;1
1725;-609;1
1725;-590;1
1725;-624;1
1725;-655;1
1781;-646;1
1781;-689;1
1781;-702;1
1781;-745;1
1781;-751;1
1781;-766;1
1781;-754;1
1781;-756;1
1781;-754;1
1781;-724;1
1781;-747;1
1781;-740;1
1781;-757;1
1781;-756;1
1781;-782;1
1781;-770;1
1781;-791;1
1781;-813;1
1781;-796;1
1781;-813;1
1781;-835;1
1781;-827;1
1781;-834;1
1781;-860;1
1781;-838;1
1781;-852;1
1781;-857;1
1781;-834;1
1781;-857;1
1781;-839;1
1781;-849;1
1781;-824;1
1781;-853;1
1781;-840;1
1781;-855;1
1781;-868;1
1781;-855;1
1781;-851;1
1781;-862;1
1781;-832;1
1781;-864;1
1781;-858;1
1781;-861;1
1781;-839;1
1781;-859;1
1781;-849;1
1781;-885;1
1781;-877;1
1781;-866;1
1781;-881;1
1781;-868;1
1781;-862;1
1781;-883;1
1781;-869;1
1834;-868;1
1834;-830;1
1834;-838;1
1834;-812;1
1834;-835;1
1834;-823;1
1834;-852;1
1834;-838;1
1834;-835;1
1834;-813;1
1834;-835;1
1834;-801;1
1834;-803;1
1834;-784;1
1834;-802;1
1834;-772;1
1834;-783;1
1834;-768;1
1834;-793;1
1834;-786;1
1834;-788;1
1834;-771;1
1834;-790;1
1834;-803;1
1834;-772;1
1834;-785;1
1834;-782;1
1834;-752;1
1834;-763;1
1834;-736;1
1834;-745;1
1834;-715;1
1834;-742;1
1834;-728;1
1834;-719;1
1834;-686;1
1834;-682;1
1834;-689;1
1834;-708;1
1834;-685;1
1834;-697;1
1834;-693;1
1834;-706;1
1834;-682;1
1834;-684;1
1834;-675;1
1834;-699;1
1834;-670;1
1910;-670;1
1910;-670;1
1910;-670;1
1910;-670;1
1910;-670;1
1910;-670;1
1910;-670;1
1910;-670;1
1910;-670;1
1910;-670;1
1910;-670;1
1910;-670;1
1910;-670;1
1910;-651;1
1910;-647;1
1910;-615;1
1910;-641;1
1910;-622;1
1910;-624;1
1910;-619;1
1910;-623;1
1910;-603;1
1910;-637;1
1910;-628;1
1910;-622;1
1910;-619;1
1910;-634;1
1910;-599;1
1910;-606;1
1910;-612;1
1910;-638;1
1910;-615;1
1910;-616;1
1910;-584;1
1910;-589;1
1910;-597;1
1910;-583;1
1910;-567;1
1910;-570;1
1910;-553;1
1910;-541;1
1910;-552;1
1910;-554;1
1910;-540;1
1910;-532;1
1910;-500;1
1910;-524;1
1910;-504;1
1910;-514;1
1910;-521;1
1910;-517;1
1910;-484;1
1910;-501;1
1910;-490;1
1910;-504;1
1910;-502;1
1910;-517;1
1910;-497;1
1910;-499;1
1910;-473;1
1933;-480;1
1933;-485;1
1933;-488;1
1933;-464;1
1933;-463;1
1933;-466;1
1933;-447;1
1933;-451;1
1933;-469;1
1933;-443;1
1933;-458;1
1933;-457;1
1933;-471;1
1933;-452;1
1933;-481;1
1933;-462;1
1933;-463;1
1933;-440;1
1933;-430;1
1933;-435;1
1933;-437;1
1933;-429;1
1933;-462;1
1933;-453;1
1933;-469;1
1933;-462;1
1933;-473;1
1933;-452;1
1933;-464;1
1933;-450;1
1933;-465;1
1933;-434;1
1933;-455;1
1933;-444;1
1933;-470;1
1933;-461;1
1933;-476;1
1933;-487;1
1933;-502;1
1933;-476;1
1933;-484;1
1933;-506;1
1985;-478;1
1985;-487;1
1985;-494;1
1985;-479;1
1985;-498;1
1985;-487;1
1985;-501;1
1985;-489;1
1985;-504;1
1985;-472;1
1985;-493;1
1985;-506;1
1985;-487;1
1985;-499;1
1985;-471;1
1985;-484;1
1985;-489;1
1985;-502;1
1985;-535;1
1985;-535;1
1985;-535;1
1985;-535;1
1985;-535;1
1985;-535;1
1985;-535;1
1985;-535;1
1985;-535;1
1985;-535;1
1985;-535;1
1985;-535;1
1985;-535;1
1985;-545;1
1985;-568;1
1985;-553;1
1985;-563;1
1985;-549;1
1985;-552;1
1985;-549;1
1985;-573;1
1985;-548;1
1985;-573;1
1985;-538;1
1985;-561;1
1985;-547;1
1985;-581;1
1985;-559;1
1985;-564;1
1985;-537;1
1985;-546;1
1985;-563;1
1985;-586;1
1985;-573;1
1985;-586;1
1985;-593;1
1985;-570;1
1985;-601;1
1985;-624;1
1985;-614;1
1985;-634;1
1985;-590;1
1985;-600;1
1985;-582;1
1985;-590;1
1985;-606;1
1985;-604;1
1985;-601;1
2038;-595;1
2038;-588;1
2038;-614;1
2038;-599;1
2038;-603;1
2038;-586;1
2038;-575;1
2038;-563;1
2038;-580;1
2038;-574;1
2038;-606;1
2038;-597;1
2038;-595;1
2038;-592;1
2038;-614;1
2038;-594;1
2038;-610;1
2038;-610;1
2038;-622;1
2038;-594;1
2038;-605;1
2038;-571;1
2038;-579;1
2038;-592;1
2038;-573;1
2038;-584;1
2038;-583;1
2038;-554;1
2038;-581;1
2038;-563;1
2038;-562;1
2038;-562;1
2038;-562;1
2038;-562;1
2038;-562;1
2038;-562;1
2038;-562;1
2038;-562;1
2038;-562;1
2038;-562;1
2038;-562;1
2038;-562;1
2038;-562;1
2038;-552;1
2038;-569;1
2038;-561;1
2038;-570;1
2038;-564;1
2038;-563;1
2038;-550;1
2038;-562;1
2038;-534;1
2038;-530;1
2038;-511;1
2091;-521;1
2091;-515;1
2091;-526;1
2091;-502;1
2091;-529;1
2091;-519;1
2091;-544;1
2091;-547;1
2091;-576;1
2091;-541;1
2091;-547;1
2091;-554;1
2091;-533;1
2091;-532;1
2091;-540;1
2091;-507;1
2091;-516;1
2091;-473;1
2091;-479;1
2091;-487;1
2091;-513;1
2091;-490;1
2091;-519;1
2091;-495;1
2091;-559;1
2091;-559;1
2091;-559;1
2091;-559;1
2091;-559;1
2091;-559;1
2091;-559;1
2091;-559;1
2091;-559;1
2091;-559;1
2091;-559;1
2091;-559;1
2091;-559;1
2091;-551;1
2091;-524;1
2091;-521;1
2091;-508;1
2091;-515;1
2091;-500;1
2091;-470;1
2091;-473;1
2091;-451;1
2091;-469;1
2091;-486;1
2091;-469;1
2091;-461;1
2091;-471;1
2091;-464;1
2091;-506;1
2091;-515;1
2091;-543;1
2091;-522;1
2091;-532;1
2091;-501;1
2091;-510;1
2091;-489;1
2141;-495;1
2141;-487;1
2141;-496;1
2141;-466;1
2141;-495;1
2141;-491;1
2141;-520;1
2141;-510;1
2141;-524;1
2141;-501;1
2141;-508;1
2141;-481;1
2141;-492;1
2141;-509;1
2141;-508;1
2141;-474;1
2141;-485;1
2141;-502;1
2141;-490;1
2141;-506;1
2141;-513;1
2141;-508;1
2141;-494;1
2141;-498;1
2141;-503;1
2141;-516;1
2141;-537;1
2141;-527;1
2141;-545;1
2141;-529;1
2141;-544;1
2141;-528;1
2141;-561;1
2141;-527;1
2141;-534;1
2141;-509;1
2141;-527;1
2141;-506;1
2141;-523;1
2141;-500;1
2141;-510;1
2141;-527;1
2194;-498;1
2194;-508;1
2194;-522;1
2194;-502;1
2194;-530;1
2194;-524;1
2194;-534;1
2194;-516;1
2194;-536;1
2194;-550;1
2194;-586;1
2194;-577;1
2194;-599;1
2194;-580;1
2194;-601;1
2194;-574;1
2194;-581;1
2194;-614;1
2194;-598;1
2194;-608;1
2194;-591;1
2194;-576;1
2194;-582;1
2194;-592;1
2194;-580;1
2194;-575;1
2194;-577;1
2194;-559;1
2194;-580;1
2194;-579;1
2194;-584;1
2194;-557;1
2194;-568;1
2194;-555;1
2194;-569;1
2194;-583;1
2194;-558;1
2194;-568;1
2194;-580;1
2194;-551;1
2194;-576;1
2194;-597;1
2194;-579;1
2194;-597;1
2194;-608;1
2194;-574;1
2194;-585;1
2194;-565;1
2194;-586;1
2194;-601;1
2194;-599;1
2194;-568;1
2194;-579;1
2194;-563;1
2249;-585;1
2249;-587;1
2249;-610;1
2249;-601;1
2249;-598;1
2249;-588;1
2249;-570;1
2249;-559;1
2249;-584;1
2249;-581;1
2249;-588;1
2249;-593;1
2249;-580;1
2249;-574;1
2249;-604;1
2249;-572;1
2249;-562;1
2249;-566;1
2249;-540;1
2249;-536;1
2249;-532;1
2249;-502;1
2249;-526;1
2249;-501;1
2249;-483;1
2249;-487;1
2249;-510;1
2249;-490;1
2249;-515;1
2249;-497;1
2249;-508;1
2249;-484;1
2249;-497;1
2249;-498;1
2249;-514;1
2249;-483;1
2249;-489;1
2249;-491;1
2249;-510;1
2249;-491;1
2249;-506;1
2249;-501;1
2249;-510;1
2249;-486;1
2249;-506;1
2249;-514;1
2249;-540;1
2249;-525;1
2249;-519;1
2249;-506;1
2249;-511;1
2249;-488;1
2249;-498;1
2249;-514;1
2300;-501;1
2300;-489;1
2300;-503;1
2300;-479;1
2300;-496;1
2300;-486;1
2300;-503;1
2300;-484;1
2300;-497;1
2300;-453;1
2300;-473;1
2300;-467;1
2300;-486;1
2300;-489;1
2300;-499;1
2300;-475;1
2300;-491;1
2300;-467;1
2300;-478;1
2300;-490;1
2300;-504;1
2300;-486;1
2300;-502;1
2300;-483;1
2300;-505;1
2300;-488;1
2300;-499;1
2300;-480;1
2300;-477;1
2300;-467;1
2300;-487;1
2300;-474;1
2300;-506;1
2300;-488;1
2300;-509;1
2300;-486;1
2300;-483;1
2300;-475;1
2300;-509;1
2300;-502;1
2300;-502;1
2300;-521;1
2300;-550;1
2300;-577;1
2300;-625;1
2300;-628;1
2300;-673;1
2300;-671;1
2350;-684;1
2350;-661;1
2350;-677;1
2350;-677;1
2350;-705;1
2350;-675;1
2350;-632;1
2350;-597;1
2350;-642;1
2350;-620;1
2350;-610;1
2350;-587;1
2350;-539;1
2350;-528;1
2350;-520;1
2350;-458;1
2350;-409;1
2350;-317;1
2350;-301;1
2350;-263;1
2350;-301;1
2350;-323;1
2350;-397;1
2350;-457;1
2350;-478;1
2350;-530;1
2350;-542;1
2350;-574;1
2350;-580;1
2350;-618;1
2350;-638;1
2350;-647;1
2350;-651;1
2350;-638;1
2350;-650;1
2350;-679;1
2401;-696;1
2401;-697;1
2401;-715;1
2401;-682;1
2401;-696;1
2401;-716;1
2401;-721;1
2401;-721;1
2401;-721;1
2401;-721;1
2401;-721;1
2401;-721;1
2401;-721;1
2401;-721;1
2401;-721;1
2401;-721;1
2401;-721;1
2401;-721;1
2401;-721;1
2401;-721;1
2401;-721;1
2401;-721;1
2401;-721;1
2401;-721;1
2401;-721;1
2401;-749;1
2401;-790;1
2401;-800;1
2401;-830;1
2401;-798;1
2401;-805;1
2401;-819;1
2401;-844;1
2401;-796;1
2401;-820;1
2401;-822;1
2401;-788;1
2401;-783;1
2401;-830;1
2401;-836;1
2401;-856;1
2401;-878;1
2401;-900;1
2401;-912;1
2401;-957;1
2401;-943;1
2401;-974;1
2401;-973;1
2401;-976;1
2401;-963;1
2401;-964;1
2401;-935;1
2401;-926;1
2401;-942;1
2401;-915;1
2401;-904;1
2401;-901;1
2401;-888;1
2401;-924;1
2401;-912;1
2401;-933;1
2401;-962;1
2401;-1003;1
2401;-1014;1
2401;-1047;1
2401;-1044;1
2401;-1070;1
2401;-1047;1
2401;-1053;1
2401;-1033;1
2401;-1048;1
2401;-1057;1
2452;-1016;1
2452;-1017;1
2452;-1022;1
2452;-1003;1
2452;-1001;1
2452;-1020;1
2452;-991;1
2452;-1001;1
2452;-975;1
2452;-972;1
2452;-989;1
2452;-990;1
2452;-985;1
2452;-990;1
2452;-993;1
2452;-941;1
2452;-928;1
2452;-947;1
2452;-953;1
2452;-975;1
2452;-1007;1
2452;-985;1
2452;-1009;1
2452;-1028;1
2452;-1027;1
2452;-1054;1
2452;-1048;1
2452;-989;1
2452;-977;1
2452;-937;1
2452;-934;1
2452;-923;1
2452;-928;1
2452;-921;1
2452;-931;1
2452;-889;1
2452;-907;1
2452;-906;1
2452;-931;1
2452;-871;1
2452;-874;1
2452;-897;1
2452;-864;1
2452;-851;1
2452;-861;1
2452;-822;1
2452;-823;1
2452;-783;1
2503;-775;1
2503;-774;1
2503;-772;1
2503;-751;1
2503;-775;1
2503;-749;1
2503;-724;1
2503;-708;1
2503;-714;1
2503;-696;1
2503;-667;1
2503;-664;1
2503;-652;1
2503;-664;1
2503;-665;1
2503;-637;1
2503;-637;1
2503;-612;1
2503;-612;1
2503;-582;1
2503;-589;1
2503;-569;1
2503;-586;1
2503;-561;1
2503;-577;1
2503;-546;1
2503;-552;1
2503;-544;1
2503;-556;1
2503;-557;1
2503;-495;1
2503;-494;1
2503;-492;1
2503;-448;1
2503;-428;1
2503;-432;1
2503;-419;1
2503;-444;1
2503;-459;1
2503;-451;1
2503;-460;1
2503;-467;1
2503;-446;1
2503;-461;1
2503;-462;1
2503;-417;1
2503;-428;1
2503;-414;1
2503;-417;1
2503;-422;1
2503;-432;1
2503;-396;1
2503;-395;1
2503;-392;1
2559;-375;1
2559;-386;1
2559;-394;1
2559;-371;1
2559;-387;1
2559;-371;1
2559;-372;1
2559;-372;1
2559;-379;1
2559;-369;1
2559;-369;1
2559;-363;1
2559;-340;1
2559;-332;1
2559;-332;1
2559;-287;1
2559;-289;1
2559;-297;1
2559;-274;1
2559;-287;1
2559;-300;1
2559;-275;1
2559;-295;1
2559;-305;1
2559;-314;1
2559;-332;1
2559;-383;1
2559;-380;1
2559;-408;1
2559;-423;1
2559;-433;1
2559;-412;1
2559;-407;1
2559;-368;1
2559;-373;1
2559;-367;1
2559;-361;1
2559;-352;1
2559;-371;1
2559;-323;1
2559;-332;1
2559;-338;1
2559;-336;1
2559;-354;1
2559;-384;1
2559;-394;1
2559;-451;1
2559;-479;1
2609;-542;1
2609;-543;1
2609;-572;1
2609;-577;1
2609;-607;1
2609;-557;1
2609;-547;1
2609;-507;1
2609;-512;1
2609;-481;1
2609;-488;1
2609;-505;1
2609;-508;1
2609;-506;1
2609;-505;1
2609;-483;1
2609;-507;1
2609;-499;1
2609;-530;1
2609;-513;1
2609;-524;1
2609;-486;1
2609;-507;1
2609;-543;1
2609;-521;1
2609;-543;1
2609;-538;1
2609;-573;1
2609;-605;1
2609;-599;1
2609;-591;1
2609;-597;1
2609;-609;1
2609;-598;1
2609;-619;1
2609;-653;1
2609;-659;1
2609;-678;1
2609;-713;1
2609;-708;1
2609;-732;1
2609;-711;1
2609;-714;1
2609;-685;1
2609;-692;1
2609;-670;1
2609;-688;1
2609;-671;1
2609;-688;1
2609;-665;1
2609;-706;1
2609;-700;1
2609;-723;1
2609;-700;1
2665;-726;1
2665;-699;1
2665;-727;1
2665;-710;1
2665;-740;1
2665;-733;1
2665;-735;1
2665;-733;1
2665;-744;1
2665;-729;1
2665;-727;1
2665;-733;1
2665;-720;1
2665;-721;1
2665;-726;1
2665;-694;1
2665;-711;1
2665;-705;1
2665;-698;1
2665;-718;1
2665;-693;1
2665;-714;1
2665;-694;1
2665;-698;1
2665;-691;1
2665;-696;1
2665;-697;1
2665;-679;1
2665;-707;1
2665;-704;1
2665;-718;1
2665;-683;1
2665;-703;1
2665;-678;1
2665;-691;1
2665;-672;1
2665;-688;1
2665;-680;1
2665;-691;1
2665;-646;1
2665;-638;1
2665;-636;1
2665;-615;1
2665;-635;1
2665;-642;1
2665;-598;1
2665;-605;1
2665;-587;1
2665;-587;1
2665;-567;1
2665;-522;1
2665;-486;1
2665;-488;1
2665;-490;1
2715;-501;1
2715;-496;1
2715;-507;1
2715;-477;1
2715;-485;1
2715;-499;1
2715;-493;1
2715;-489;1
2715;-502;1
2715;-485;1
2715;-487;1
2715;-440;1
2715;-436;1
2715;-429;1
2715;-418;1
2715;-387;1
2715;-387;1
2715;-377;1
2715;-383;1
2715;-379;1
2715;-381;1
2715;-358;1
2715;-381;1
2715;-370;1
2715;-376;1
2715;-370;1
2715;-367;1
2715;-357;1
2715;-380;1
2715;-396;1
2715;-329;1
2715;-309;1
2715;-325;1
2715;-301;1
2715;-315;1
2715;-282;1
2715;-302;1
2715;-280;1
2715;-298;1
2715;-285;1
2715;-298;1
2715;-291;1
2715;-266;1
2715;-230;1
2715;-246;1
2715;-231;1
2715;-251;1
2715;-270;1
2769;-265;1
2769;-262;1
2769;-285;1
2769;-274;1
2769;-293;1
2769;-293;1
2769;-299;1
2769;-291;1
2769;-299;1
2769;-255;1
2769;-271;1
2769;-287;1
2769;-283;1
2769;-285;1
2769;-295;1
2769;-264;1
2769;-282;1
2769;-248;1
2769;-271;1
2769;-254;1
2769;-278;1
2769;-251;1
2769;-259;1
2769;-253;1
2769;-290;1
2769;-311;1
2769;-335;1
2769;-307;1
2769;-336;1
2769;-345;1
2769;-325;1
2769;-360;1
2769;-377;1
2769;-334;1
2769;-306;1
2769;-311;1
2769;-291;1
2769;-323;1
2769;-336;1
2769;-335;1
2769;-342;1
2769;-325;1
2769;-317;1
2769;-323;1
2769;-350;1
2769;-305;1
2769;-334;1
2769;-329;1
2769;-353;1
2769;-350;1
2769;-367;1
2769;-369;1
2769;-366;1
2769;-344;1
2819;-334;1
2819;-344;1
2819;-363;1
2819;-352;1
2819;-366;1
2819;-394;1
2819;-371;1
2819;-374;1
2819;-403;1
2819;-388;1
2819;-386;1
2819;-400;1
2819;-369;1
2819;-373;1
2819;-379;1
2819;-360;1
2819;-387;1
2819;-391;1
2819;-398;1
2819;-399;1
2819;-398;1
2819;-369;1
2819;-388;1
2819;-377;1
2819;-403;1
2819;-401;1
2819;-395;1
2819;-370;1
2819;-351;1
2819;-335;1
2819;-312;1
2819;-305;1
2819;-326;1
2819;-314;1
2819;-344;1
2819;-353;1
2819;-388;1
2819;-388;1
2819;-402;1
2819;-374;1
2819;-380;1
2819;-391;1
2819;-374;1
2819;-406;1
2819;-435;1
2819;-404;1
2819;-414;1
2819;-388;1
2872;-387;1
2872;-384;1
2872;-389;1
2872;-366;1
2872;-378;1
2872;-338;1
2872;-351;1
2872;-374;1
2872;-413;1
2872;-405;1
2872;-436;1
2872;-413;1
2872;-445;1
2872;-450;1
2872;-443;1
2872;-408;1
2872;-414;1
2872;-403;1
2872;-410;1
2872;-396;1
2872;-436;1
2872;-422;1
2872;-421;1
2872;-427;1
2872;-407;1
2872;-398;1
2872;-407;1
2872;-411;1
2872;-432;1
2872;-440;1
2872;-405;1
2872;-407;1
2872;-421;1
2872;-394;1
2872;-419;1
2872;-391;1
2872;-374;1
2872;-353;1
2872;-369;1
2872;-344;1
2872;-363;1
2872;-372;1
2872;-345;1
2872;-309;1
2872;-301;1
2872;-278;1
2872;-315;1
2872;-302;1
2872;-322;1
2872;-309;1
2872;-331;1
2872;-317;1
2872;-327;1
2872;-318;1
2929;-327;1
2929;-326;1
2929;-317;1
2929;-281;1
2929;-290;1
2929;-285;1
2929;-301;1
2929;-263;1
2929;-282;1
2929;-271;1
2929;-272;1
2929;-282;1
2929;-289;1
2929;-296;1
2929;-323;1
2929;-299;1
2929;-332;1
2929;-327;1
2929;-344;1
2929;-377;1
2929;-418;1
2929;-399;1
2929;-408;1
2929;-411;1
2929;-308;1
2929;-308;1
2929;-308;1
2929;-308;1
2929;-308;1
2929;-308;1
2929;-308;1
2929;-308;1
2929;-308;1
2929;-308;1
2929;-308;1
2929;-308;1
2929;-308;1
2929;-318;1
2929;-330;1
2929;-303;1
2929;-308;1
2929;-275;1
2929;-278;1
2929;-289;1
2929;-296;1
2929;-279;1
2929;-294;1
2929;-249;1
2929;-247;1
2929;-235;1
2929;-262;1
2929;-240;1
2929;-234;1
2929;-233;1
2929;-273;1
2929;-252;1
2929;-286;1
2929;-299;1
2929;-325;1
2929;-316;1
2983;-314;1
2983;-292;1
2983;-307;1
2983;-284;1
2983;-294;1
2983;-268;1
2983;-263;1
2983;-233;1
2983;-249;1
2983;-237;1
2983;-274;1
2983;-264;1
2983;-277;1
2983;-273;1
2983;-293;1
2983;-254;1
2983;-262;1
2983;-288;1
2983;-280;1
2983;-291;1
2983;-297;1
2983;-288;1
2983;-311;1
2983;-313;1
2983;-327;1
2983;-315;1
2983;-336;1
2983;-319;1
2983;-343;1
2983;-339;1
2983;-368;1
2983;-350;1
2983;-363;1
2983;-335;1
2983;-329;1
2983;-341;1
2983;-352;1
2983;-349;1
2983;-327;1
2983;-323;1
2983;-327;1
2983;-322;1
2983;-329;1
2983;-329;1
2983;-343;1
2983;-317;1
2983;-320;1
2983;-345;1
3034;-349;1
3034;-364;1
3034;-389;1
3034;-389;1
3034;-416;1
3034;-447;1
3034;-450;1
3034;-470;1
3034;-501;1
3034;-485;1
3034;-521;1
3034;-498;1
3034;-511;1
3034;-520;1
3034;-535;1
3034;-533;1
3034;-561;1
3034;-557;1
3034;-532;1
3034;-538;1
3034;-537;1
3034;-497;1
3034;-526;1
3034;-506;1
3034;-500;1
3034;-435;1
3034;-428;1
3034;-376;1
3034;-350;1
3034;-319;1
3034;-238;1
3034;-170;1
3034;-117;1
3034;-122;1
3034;-160;1
3034;-193;1
3034;-253;1
3034;-285;1
3034;-350;1
3034;-366;1
3034;-416;1
3034;-417;1
3034;-422;1
3034;-428;1
3034;-447;1
3034;-442;1
3034;-496;1
3034;-524;1
3034;-555;1
3034;-546;1
3034;-574;1
3034;-554;1
3034;-584;1
3034;-577;1
3124;-597;1
3124;-607;1
3124;-605;1
3124;-571;1
3124;-577;1
3124;-581;1
3124;-562;1
3124;-578;1
3124;-563;1
3124;-541;1
3124;-571;1
3124;-599;1
3124;-603;1
3124;-637;1
3124;-596;1
3124;-598;1
3124;-608;1
3124;-628;1
3124;-616;1
3124;-595;1
3124;-610;1
3124;-588;1
3124;-575;1
3124;-572;1
3124;-563;1
3124;-571;1
3124;-588;1
3124;-562;1
3124;-567;1
3124;-542;1
3124;-540;1
3124;-556;1
3124;-562;1
3124;-521;1
3124;-545;1
3124;-516;1
3124;-507;1
3124;-510;1
3124;-528;1
3124;-521;1
3124;-571;1
3124;-549;1
3124;-532;1
3124;-532;1
3124;-532;1
3124;-532;1
3124;-532;1
3124;-532;1
3124;-532;1
3124;-532;1
3124;-532;1
3124;-532;1
3124;-532;1
3124;-532;1
3124;-532;1
3124;-505;1
3124;-517;1
3124;-503;1
3124;-538;1
3124;-522;1
3622;-323;0
3622;-326;0
3622;-309;0
3622;-317;0
3622;-289;0
3622;-307;0
3622;-292;0
3622;-291;0
3622;-289;0
3622;-289;0
3622;-267;0
3622;-276;0
3622;-291;0
3622;-269;0
3622;-263;0
3622;-277;0
3622;-252;0
3622;-268;0
3622;-277;0
3622;-305;0
3622;-287;0
3622;-300;0
3622;-275;0
3622;-284;0
3622;-253;0
3622;-258;0
3622;-252;0
3622;-260;0
3622;-229;0
3622;-247;0
3622;-224;0
3622;-238;0
3622;-260;0
3622;-285;0
3622;-258;0
3622;-260;0
3622;-256;0
3622;-250;0
3622;-260;0
3622;-278;0
3622;-255;0
3622;-282;0
3622;-275;0
3622;-294;0
3622;-305;0
3622;-320;0
3622;-304;0
3622;-297;0
3622;-293;0
3622;-265;0
3622;-270;0
3622;-280;0
3622;-242;0
3622;-255;0
3622;-217;0
3622;-199;0
3622;-187;0
3622;-199;0
3622;-205;0
3622;-256;0
3622;-257;0
3622;-303;0
3622;-338;0
3622;-371;0
3622;-363;0
3622;-390;0
3622;-375;0
3622;-383;0
3622;-341;0
3622;-351;0
3622;-333;0
3622;-350;0
3622;-361;0
3622;-345;0
3622;-361;0
3622;-320;0
3622;-326;0
3622;-328;0
3622;-330;0
3622;-326;0
3622;-311;0
3622;-329;0
3622;-312;0
3622;-342;0
3622;-335;0
3622;-344;0
3622;-353;0
3622;-361;0
3622;-345;0
3622;-367;0
3622;-369;0
3622;-394;0
3622;-375;0
3622;-393;0
3622;-385;0
3622;-402;0
3622;-430;0
3622;-426;0
3622;-422;0
3622;-436;0
3622;-403;0
3622;-426;0
3622;-405;0
3622;-421;0
3622;-391;0
3622;-408;0
3622;-375;0
3622;-388;0
3622;-386;0
4189;-532;0
4189;-557;0
4189;-576;0
4189;-618;0
4189;-589;0
4189;-596;0
4189;-578;0
4189;-583;0
4189;-585;0
4189;-588;0
4189;-554;0
4189;-567;0
4189;-538;0
4189;-553;0
4189;-542;0
4189;-562;0
4189;-541;0
4189;-554;0
4189;-524;0
4189;-540;0
4189;-525;0
4189;-556;0
4189;-570;0
4189;-586;0
4189;-600;0
4189;-560;0
4189;-566;0
4189;-551;0
4189;-560;0
4189;-559;0
4189;-544;0
4189;-534;0
4189;-531;0
4189;-540;0
4189;-551;0
4189;-557;0
4189;-565;0
4189;-555;0
4189;-555;0
4189;-564;0
4189;-537;0
4189;-542;0
4189;-554;0
4189;-534;0
4189;-527;0
4189;-546;0
4189;-518;0
4189;-525;0
4189;-517;0
4189;-531;0
4189;-523;0
4189;-501;0
4189;-464;0
4189;-476;0
4189;-454;0
4189;-484;0
4189;-466;0
4189;-490;0
4189;-475;0
4189;-499;0
4189;-482;0
4189;-529;0
4189;-551;0
4189;-572;0
4189;-555;0
4189;-571;0
4189;-584;0
4189;-559;0
4189;-557;0
4189;-547;0
4189;-503;0
4189;-508;0
4189;-496;0
4189;-501;0
4189;-502;0
4189;-505;0
4189;-519;0
4189;-536;0
4189;-522;0
4189;-533;0
4189;-513;0
4189;-512;0
4189;-488;0
4189;-501;0
4189;-485;0
4189;-498;0
4189;-476;0
4189;-503;0
4189;-496;0
4189;-513;0
4189;-480;0
4189;-477;0
4189;-479;0
4189;-500;0
4189;-482;0
4189;-514;0
4189;-494;0
4189;-533;0
4189;-536;0
4189;-570;0
4189;-558;0
4189;-562;0
4189;-556;0
4189;-526;0
4189;-534;0
4189;-535;0
4189;-495;0
4189;-513;0
4189;-493;0
4189;-518;0
4189;-478;0
4189;-507;0
4189;-477;0
4189;-486;0
4189;-491;0
4189;-485;0
4189;-484;0
4189;-503;0
4189;-458;0
4189;-481;0
4189;-471;0
4189;-476;0
4189;-473;0
4189;-473;0
4189;-430;0
4189;-455;0
4189;-438;0
4189;-439;0
4189;-451;0
4189;-452;0
4189;-431;0
4189;-453;0
4189;-444;0
4189;-472;0
4189;-454;0
4189;-476;0
4189;-458;0
4189;-497;0
4189;-460;0
4189;-478;0
4189;-443;0
4189;-451;0
4189;-413;0
4189;-428;0
4189;-405;0
4189;-417;0
4189;-404;0
4189;-414;0
4189;-391;0
4189;-386;0
4189;-359;0
4189;-376;0
4189;-372;0
4189;-398;0
4189;-405;0
4189;-394;0
4189;-368;0
4189;-366;0
4189;-378;0
4189;-425;0
4189;-412;0
4189;-428;0
4189;-451;0
4218;-434;1
4218;-429;1
4218;-433;1
4218;-407;1
4218;-414;1
4218;-380;1
4218;-361;1
4218;-362;1
4218;-388;1
4218;-374;1
4218;-394;1
4218;-380;1
4218;-390;1
4218;-349;1
4218;-334;1
4218;-332;1
4218;-351;1
4218;-321;1
4218;-330;1
4218;-333;1
4218;-351;1
4218;-328;1
4218;-334;1
4218;-321;1
4218;-323;1
4218;-306;1
4218;-322;1
4218;-298;1
4218;-321;1
4218;-295;1
4218;-306;1
4218;-282;1
4218;-298;1
4218;-256;1
4218;-260;1
4218;-259;1
4218;-250;1
4218;-229;1
4218;-225;1
4218;-219;1
4218;-219;1
4218;-234;1
4218;-219;1
4218;-199;1
4218;-189;1
4218;-136;1
4218;-161;1
4218;-157;1
4269;-169;1
4269;-154;1
4269;-183;1
4269;-189;1
4269;-237;1
4269;-233;1
4269;-250;1
4269;-255;1
4269;-259;1
4269;-235;1
4269;-234;1
4269;-236;1
4269;-177;1
4269;-157;1
4269;-178;1
4269;-169;1
4269;-188;1
4269;-210;1
4269;-198;1
4269;-214;1
4269;-238;1
4269;-206;1
4269;-192;1
4269;-187;1
4269;-168;1
4269;-192;1
4269;-186;1
4269;-208;1
4269;-221;1
4269;-227;1
4269;-241;1
4269;-272;1
4269;-293;1
4269;-269;1
4269;-288;1
4269;-250;1
4269;-257;1
4269;-255;1
4269;-258;1
4269;-236;1
4269;-264;1
4269;-260;1
4269;-275;1
4269;-274;1
4269;-286;1
4269;-269;1
4269;-289;1
4269;-272;1
4323;-291;1
4323;-289;1
4323;-333;1
4323;-348;1
4323;-396;1
4323;-441;1
4323;-449;1
4323;-472;1
4323;-517;1
4323;-517;1
4323;-526;1
4323;-521;1
4323;-453;1
4323;-426;1
4323;-413;1
4323;-377;1
4323;-359;1
4323;-331;1
4323;-256;1
4323;-221;1
4323;-169;1
4323;-124;1
4323;-107;1
4323;-60;1
4323;-9;1
4323;46;1
4323;70;1
4323;83;1
4323;45;1
4323;-31;1
4323;-73;1
4323;-123;1
4323;-199;1
4323;-207;1
4323;-246;1
4323;-277;1
4323;-247;1
4323;-250;1
4323;-276;1
4323;-275;1
4323;-314;1
4323;-360;1
4323;-349;1
4323;-382;1
4323;-431;1
4323;-440;1
4323;-446;1
4323;-420;1
4373;-425;1
4373;-418;1
4373;-410;1
4373;-378;1
4373;-409;1
4373;-375;1
4373;-405;1
4373;-383;1
4373;-409;1
4373;-394;1
4373;-402;1
4373;-404;1
4373;-407;1
4373;-400;1
4373;-443;1
4373;-459;1
4373;-469;1
4373;-452;1
4373;-432;1
4373;-425;1
4373;-440;1
4373;-436;1
4373;-454;1
4373;-442;1
4373;-446;1
4373;-447;1
4373;-464;1
4373;-448;1
4373;-469;1
4373;-431;1
4373;-424;1
4373;-420;1
4373;-404;1
4373;-389;1
4373;-454;1
4373;-443;1
4373;-468;1
4373;-470;1
4373;-491;1
4373;-474;1
4373;-506;1
4373;-494;1
4373;-512;1
4373;-525;1
4373;-534;1
4373;-503;1
4373;-508;1
4373;-518;1
4426;-497;1
4426;-511;1
4426;-519;1
4426;-484;1
4426;-498;1
4426;-492;1
4426;-509;1
4426;-509;1
4426;-509;1
4426;-509;1
4426;-509;1
4426;-509;1
4426;-509;1
4426;-509;1
4426;-509;1
4426;-509;1
4426;-509;1
4426;-509;1
4426;-509;1
4426;-500;1
4426;-516;1
4426;-510;1
4426;-524;1
4426;-514;1
4426;-524;1
4426;-538;1
4426;-549;1
4426;-530;1
4426;-548;1
4426;-572;1
4426;-561;1
4426;-580;1
4426;-586;1
4426;-566;1
4426;-559;1
4426;-521;1
4426;-604;1
4426;-604;1
4426;-604;1
4426;-604;1
4426;-604;1
4426;-604;1
4426;-604;1
4426;-604;1
4426;-604;1
4426;-604;1
4426;-604;1
4426;-604;1
4426;-604;1
4426;-592;1
4426;-638;1
4426;-624;1
4426;-626;1
4426;-583;1
4426;-587;1
4426;-605;1
4426;-629;1
4426;-604;1
4426;-613;1
4426;-610;1
4426;-608;1
4426;-601;1
4426;-629;1
4426;-628;1
4426;-642;1
4426;-644;1
4426;-639;1
4426;-635;1
4426;-645;1
4426;-634;1
4426;-651;1
4426;-644;1
4477;-603;1
4477;-604;1
4477;-632;1
4477;-619;1
4477;-633;1
4477;-655;1
4477;-632;1
4477;-623;1
4477;-618;1
4477;-606;1
4477;-624;1
4477;-629;1
4477;-611;1
4477;-620;1
4477;-634;1
4477;-618;1
4477;-626;1
4477;-657;1
4477;-652;1
4477;-679;1
4477;-705;1
4477;-692;1
4477;-715;1
4477;-708;1
4477;-733;1
4477;-726;1
4477;-728;1
4477;-686;1
4477;-682;1
4477;-686;1
4477;-677;1
4477;-679;1
4477;-678;1
4477;-671;1
4477;-691;1
4477;-684;1
4477;-706;1
4477;-729;1
4477;-746;1
4477;-730;1
4477;-740;1
4477;-752;1
4528;-751;1
4528;-751;1
4528;-751;1
4528;-751;1
4528;-751;1
4528;-751;1
4528;-751;1
4528;-751;1
4528;-751;1
4528;-751;1
4528;-751;1
4528;-751;1
4528;-751;1
4528;-752;1
4528;-761;1
4528;-731;1
4528;-747;1
4528;-729;1
4528;-730;1
4528;-723;1
4528;-750;1
4528;-739;1
4528;-745;1
4528;-720;1
4528;-738;1
4528;-715;1
4528;-740;1
4528;-726;1
4528;-750;1
4528;-738;1
4528;-753;1
4528;-759;1
4528;-788;1
4528;-771;1
4528;-778;1
4528;-784;1
4528;-759;1
4528;-745;1
4528;-724;1
4528;-733;1
4528;-753;1
4528;-739;1
4528;-752;1
4528;-746;1
4528;-759;1
4528;-740;1
4528;-762;1
4528;-759;1
4528;-771;1
4528;-775;1
4528;-779;1
4528;-761;1
4528;-785;1
4528;-781;1
4528;-792;1
4528;-777;1
4528;-767;1
4528;-717;1
4528;-714;1
4528;-707;1
4579;-721;1
4579;-717;1
4579;-708;1
4579;-676;1
4579;-710;1
4579;-703;1
4579;-742;1
4579;-781;1
4579;-796;1
4579;-762;1
4579;-784;1
4579;-779;1
4579;-810;1
4579;-773;1
4579;-777;1
4579;-734;1
4579;-709;1
4579;-702;1
4579;-681;1
4579;-665;1
4579;-671;1
4579;-645;1
4579;-661;1
4579;-650;1
4579;-650;1
4579;-643;1
4579;-655;1
4579;-646;1
4579;-652;1
4579;-670;1
4579;-662;1
4579;-680;1
4579;-703;1
4579;-691;1
4579;-711;1
4579;-675;1
4579;-680;1
4579;-647;1
4579;-663;1
4579;-645;1
4579;-653;1
4579;-628;1
4579;-646;1
4579;-620;1
4579;-631;1
4579;-614;1
4579;-642;1
4579;-630;1
4630;-624;1
4630;-627;1
4630;-644;1
4630;-619;1
4630;-623;1
4630;-629;1
4630;-648;1
4630;-626;1
4630;-634;1
4630;-622;1
4630;-647;1
4630;-638;1
4630;-632;1
4630;-624;1
4630;-643;1
4630;-632;1
4630;-635;1
4630;-650;1
4630;-643;1
4630;-630;1
4630;-635;1
4630;-614;1
4630;-641;1
4630;-633;1
4630;-628;1
4630;-627;1
4630;-648;1
4630;-627;1
4630;-643;1
4630;-635;1
4630;-642;1
4630;-617;1
4630;-634;1
4630;-615;1
4630;-642;1
4630;-620;1
4630;-656;1
4630;-641;1
4630;-676;1
4630;-644;1
4630;-659;1
4630;-632;1
4630;-631;1
4630;-630;1
4630;-628;1
4630;-609;1
4630;-615;1
4630;-585;1
4630;-606;1
4630;-618;1
4630;-662;1
4630;-656;1
4630;-682;1
4630;-683;1
4682;-672;1
4682;-679;1
4682;-660;1
4682;-658;1
4682;-645;1
4682;-644;1
4682;-644;1
4682;-647;1
4682;-664;1
4682;-637;1
4682;-633;1
4682;-646;1
4682;-621;1
4682;-621;1
4682;-621;1
4682;-621;1
4682;-621;1
4682;-621;1
4682;-621;1
4682;-621;1
4682;-621;1
4682;-621;1
4682;-621;1
4682;-621;1
4682;-621;1
4682;-621;1
4682;-621;1
4682;-621;1
4682;-621;1
4682;-621;1
4682;-621;1
4682;-621;1
4682;-632;1
4682;-614;1
4682;-627;1
4682;-606;1
4682;-612;1
4682;-617;1
4682;-621;1
4682;-617;1
4682;-673;1
4682;-644;1
4682;-644;1
4682;-612;1
4682;-631;1
4682;-614;1
4682;-628;1
4682;-642;1
4682;-653;1
4682;-637;1
4682;-654;1
4682;-631;1
4682;-652;1
4682;-664;1
4735;-640;1
4735;-633;1
4735;-644;1
4735;-609;1
4735;-607;1
4735;-584;1
4735;-583;1
4735;-578;1
4735;-582;1
4735;-554;1
4735;-571;1
4735;-551;1
4735;-560;1
4735;-572;1
4735;-598;1
4735;-579;1
4735;-616;1
4735;-629;1
4735;-655;1
4735;-676;1
4735;-689;1
4735;-668;1
4735;-648;1
4735;-613;1
4735;-621;1
4735;-609;1
4735;-629;1
4735;-606;1
4735;-625;1
4735;-615;1
4735;-646;1
4735;-625;1
4735;-634;1
4735;-610;1
4735;-611;1
4735;-583;1
4735;-572;1
4735;-578;1
4735;-571;1
4735;-566;1
4735;-561;1
4735;-561;1
4735;-556;1
4735;-545;1
4735;-570;1
4735;-559;1
4735;-590;1
4735;-565;1
4735;-575;1
4735;-560;1
4735;-582;1
4735;-580;1
4735;-620;1
4735;-613;1
4786;-606;1
4786;-583;1
4786;-603;1
4786;-580;1
4786;-607;1
4786;-589;1
4786;-610;1
4786;-580;1
4786;-604;1
4786;-593;1
4786;-634;1
4786;-610;1
4786;-620;1
4786;-602;1
4786;-631;1
4786;-628;1
4786;-635;1
4786;-647;1
4786;-626;1
4786;-641;1
4786;-593;1
4786;-615;1
4786;-612;1
4786;-616;1
4786;-605;1
4786;-594;1
4786;-607;1
4786;-567;1
4786;-590;1
4786;-591;1
4786;-609;1
4786;-615;1
4786;-633;1
4786;-623;1
4786;-633;1
4786;-641;1
4786;-630;1
4786;-655;1
4786;-662;1
4786;-625;1
4786;-639;1
4786;-619;1
4786;-635;1
4786;-634;1
4786;-640;1
4786;-606;1
4786;-608;1
4786;-578;1
4838;-593;1
4838;-591;1
4838;-616;1
4838;-597;1
4838;-603;1
4838;-611;1
4838;-590;1
4838;-601;1
4838;-615;1
4838;-596;1
4838;-615;1
4838;-578;1
4838;-603;1
4838;-591;1
4838;-604;1
4838;-578;1
4838;-583;1
4838;-586;1
4838;-560;1
4838;-537;1
4838;-561;1
4838;-554;1
4838;-589;1
4838;-573;1
4838;-571;1
4838;-591;1
4838;-632;1
4838;-630;1
4838;-659;1
4838;-640;1
4838;-651;1
4838;-616;1
4838;-628;1
4838;-609;1
4838;-624;1
4838;-607;1
4838;-617;1
4838;-618;1
4838;-618;1
4838;-586;1
4838;-608;1
4838;-636;1
4838;-615;1
4838;-622;1
4838;-627;1
4838;-598;1
4838;-606;1
4838;-584;1
4890;-582;1
4890;-565;1
4890;-576;1
4890;-559;1
4890;-585;1
4890;-612;1
4890;-602;1
4890;-615;1
4890;-596;1
4890;-611;1
4890;-602;1
4890;-604;1
4890;-613;1
4890;-614;1
4890;-636;1
4890;-612;1
4890;-622;1
4890;-644;1
4890;-626;1
4890;-628;1
4890;-638;1
4890;-615;1
4890;-619;1
4890;-657;1
4890;-663;1
4890;-682;1
4890;-691;1
4890;-678;1
4890;-719;1
4890;-714;1
4890;-743;1
4890;-774;1
4890;-762;1
4890;-712;1
4890;-719;1
4890;-683;1
4890;-654;1
4890;-621;1
4890;-584;1
4890;-527;1
4890;-493;1
4890;-464;1
4890;-416;1
4890;-365;1
4890;-313;1
4890;-269;1
4890;-288;1
4890;-298;1
4890;-324;1
4890;-322;1
4890;-393;1
4890;-430;1
4890;-478;1
4890;-494;1
4942;-493;1
4942;-509;1
4942;-555;1
4942;-550;1
4942;-595;1
4942;-608;1
4942;-643;1
4942;-654;1
4942;-699;1
4942;-681;1
4942;-702;1
4942;-722;1
4942;-723;1
4942;-726;1
4942;-713;1
4942;-665;1
4942;-677;1
4942;-646;1
4942;-637;1
4942;-602;1
4942;-619;1
4942;-600;1
4942;-625;1
4942;-593;1
4942;-619;1
4942;-636;1
4942;-665;1
4942;-657;1
4942;-690;1
4942;-664;1
4942;-672;1
4942;-658;1
4942;-684;1
4942;-666;1
4942;-671;1
4942;-646;1
4942;-675;1
4942;-643;1
4942;-659;1
4942;-646;1
4942;-667;1
4942;-655;1
4942;-657;1
4942;-642;1
4942;-641;1
4942;-600;1
4942;-597;1
4942;-571;1
4942;-594;1
4942;-602;1
4942;-630;1
4942;-613;1
4942;-646;1
4942;-626;1
4996;-638;1
4996;-630;1
4996;-665;1
4996;-630;1
4996;-613;1
4996;-598;1
4996;-573;1
4996;-595;1
4996;-611;1
4996;-591;1
4996;-618;1
4996;-599;1
4996;-614;1
4996;-627;1
4996;-644;1
4996;-621;1
4996;-627;1
4996;-625;1
4996;-584;1
4996;-574;1
4996;-573;1
4996;-549;1
4996;-544;1
4996;-549;1
4996;-536;1
4996;-551;1
4996;-543;1
4996;-580;1
4996;-629;1
4996;-632;1
4996;-615;1
4996;-613;1
4996;-640;1
4996;-645;1
4996;-647;1
4996;-654;1
4996;-636;1
4996;-626;1
4996;-629;1
4996;-615;1
4996;-633;1
4996;-654;1
4996;-626;1
4996;-612;1
4996;-623;1
4996;-583;1
4996;-609;1
4996;-584;1
4996;-597;1
4996;-581;1
4996;-573;1
4996;-541;1
4996;-557;1
4996;-595;1
5052;-586;1
5052;-593;1
5052;-616;1
5052;-591;1
5052;-608;1
5052;-593;1
5052;-651;1
5052;-634;1
5052;-631;1
5052;-614;1
5052;-624;1
5052;-585;1
5052;-585;1
5052;-599;1
5052;-619;1
5052;-602;1
5052;-614;1
5052;-612;1
5052;-613;1
5052;-626;1
5052;-640;1
5052;-628;1
5052;-647;1
5052;-633;1
5052;-636;1
5052;-622;1
5052;-637;1
5052;-615;1
5052;-622;1
5052;-603;1
5052;-619;1
5052;-597;1
5052;-631;1
5052;-630;1
5052;-674;1
5052;-654;1
5052;-679;1
5052;-658;1
5052;-674;1
5052;-637;1
5052;-643;1
5052;-626;1
5052;-644;1
5052;-646;1
5052;-666;1
5052;-665;1
5052;-677;1
5052;-652;1
5104;-667;1
5104;-668;1
5104;-680;1
5104;-668;1
5104;-705;1
5104;-692;1
5104;-700;1
5104;-675;1
5104;-713;1
5104;-689;1
5104;-716;1
5104;-701;1
5104;-680;1
5104;-673;1
5104;-666;1
5104;-630;1
5104;-656;1
5104;-643;1
5104;-640;1
5104;-656;1
5104;-680;1
5104;-684;1
5104;-717;1
5104;-762;1
5104;-759;1
5104;-800;1
5104;-824;1
5104;-794;1
5104;-793;1
5104;-794;1
5104;-763;1
5104;-752;1
5104;-760;1
5104;-737;1
5104;-743;1
5104;-722;1
5104;-754;1
5104;-737;1
5104;-745;1
5104;-719;1
5104;-730;1
5104;-754;1
5104;-846;1
5104;-846;1
5104;-846;1
5104;-846;1
5104;-846;1
5104;-846;1
5104;-846;1
5104;-846;1
5104;-846;1
5104;-846;1
5104;-846;1
5104;-846;1
5104;-846;1
5104;-843;1
5104;-866;1
5104;-831;1
5104;-850;1
5104;-815;1
5156;-814;1
5156;-823;1
5156;-835;1
5156;-799;1
5156;-801;1
5156;-777;1
5156;-773;1
5156;-742;1
5156;-754;1
5156;-735;1
5156;-751;1
5156;-713;1
5156;-708;1
5156;-725;1
5156;-738;1
5156;-712;1
5156;-724;1
5156;-727;1
5156;-687;1
5156;-692;1
5156;-696;1
5156;-686;1
5156;-681;1
5156;-632;1
5156;-642;1
5156;-605;1
5156;-609;1
5156;-591;1
5156;-611;1
5156;-614;1
5156;-647;1
5156;-644;1
5156;-699;1
5156;-688;1
5156;-721;1
5156;-732;1
5156;-727;1
5156;-713;1
5156;-739;1
5156;-728;1
5156;-750;1
5156;-742;1
5156;-727;1
5156;-724;1
5156;-751;1
5156;-720;1
5156;-753;1
5156;-771;1
5156;-813;1
5156;-813;1
5156;-831;1
5156;-826;1
5156;-861;1
5156;-895;1
5220;-910;1
5220;-921;1
5220;-948;1
5220;-955;1
5220;-1005;1
5220;-982;1
5220;-994;1
5220;-937;1
5220;-930;1
5220;-893;1
5220;-891;1
5220;-859;1
5220;-858;1
5220;-853;1
5220;-853;1
5220;-810;1
5220;-800;1
5220;-804;1
5220;-775;1
5220;-784;1
5220;-782;1
5220;-727;1
5220;-732;1
5220;-692;1
5220;-704;1
5220;-669;1
5220;-673;1
5220;-648;1
5220;-629;1
5220;-600;1
5220;-580;1
5220;-550;1
5220;-544;1
5220;-498;1
5220;-503;1
5220;-452;1
5220;-428;1
5220;-427;1
5220;-434;1
5220;-411;1
5220;-414;1
5220;-421;1
5220;-394;1
5220;-385;1
5220;-397;1
5220;-378;1
5220;-269;1
5220;-226;1
5220;-221;1
5220;-215;1
5220;-215;1
5220;-202;1
5220;-218;1
5220;-306;1
5220;-249;1
5220;-204;1
5220;-214;1
5220;-118;1
5220;-200;1
5220;-215;1
5273;-206;1
5273;-215;1
5273;-223;1
5273;-193;1
5273;-200;1
5273;-184;1
5273;-175;1
5273;-145;1
5273;-158;1
5273;-201;1
5273;-135;1
5273;-130;1
5273;-133;1
5273;-66;1
5273;-143;1
5273;-117;1
5273;-138;1
5273;-157;1
5273;-208;1
5273;-208;1
5273;-208;1
5273;-208;1
5273;-208;1
5273;-208;1
5273;-208;1
5273;-208;1
5273;-208;1
5273;-208;1
5273;-208;1
5273;-208;1
5273;-208;1
5273;-309;1
5273;-265;1
5273;-242;1
5273;-270;1
5273;-184;1
5273;-258;1
5273;-245;1
5273;-251;1
5273;-232;1
5273;-247;1
5273;-228;1
5273;-248;1
5273;-235;1
5273;-274;1
5273;-266;1
5273;-279;1
5273;-377;1
5273;-300;1
5273;-313;1
5273;-341;1
5273;-261;1
5273;-347;1
5273;-342;1
5273;-353;1
5273;-333;1
5273;-355;1
5273;-339;1
5273;-370;1
5273;-347;1
5327;-344;1
5327;-342;1
5327;-335;1
5327;-391;1
5327;-333;1
5327;-308;1
5327;-263;1
5327;-179;1
5327;-256;1
5327;-242;1
5327;-268;1
5327;-261;1
5327;-284;1
5327;-302;1
5327;-333;1
5327;-303;1
5327;-327;1
5327;-303;1
5327;-309;1
5327;-362;1
5327;-319;1
5327;-294;1
5327;-318;1
5327;-246;1
5327;-335;1
5327;-319;1
5327;-461;1
5327;-449;1
5327;-451;1
5327;-507;1
5327;-509;1
5327;-544;1
5327;-593;1
5327;-620;1
5327;-667;1
5327;-721;1
5327;-742;1
5327;-763;1
5327;-771;1
5327;-802;1
5327;-855;1
5327;-879;1
5327;-898;1
5327;-887;1
5327;-879;1
5327;-860;1
5327;-790;1
5327;-789;1
5382;-902;1
5382;-941;1
5382;-996;1
5382;-1116;1
5382;-1078;1
5382;-1118;1
5382;-1130;1
5382;-1094;1
5382;-1191;1
5382;-1186;1
5382;-1200;1
5382;-1184;1
5382;-1206;1
5382;-1220;1
5382;-1243;1
5382;-1216;1
5382;-1243;1
5382;-1222;1
5382;-1234;1
5382;-1315;1
5382;-1293;1
5382;-1236;1
5382;-1234;1
5382;-1145;1
5382;-1203;1
5382;-1183;1
5382;-1198;1
5382;-1194;1
5382;-1243;1
5382;-1246;1
5382;-1261;1
5382;-1296;1
5382;-1319;1
5382;-1335;1
5382;-1324;1
5382;-1373;1
5382;-1321;1
5382;-1300;1
5382;-1300;1
5382;-1209;1
5382;-1291;1
5382;-1286;1
5382;-1263;1
5382;-1245;1
5382;-1252;1
5382;-1228;1
5382;-1249;1
5382;-1237;1
5382;-1260;1
5382;-1235;1
5382;-1260;1
5382;-1315;1
5382;-1245;1
5382;-1201;1
5432;-1213;1
5432;-1153;1
5432;-1264;1
5432;-1279;1
5432;-1304;1
5432;-1326;1
5432;-1310;1
5432;-1319;1
5432;-1342;1
5432;-1329;1
5432;-1331;1
5432;-1317;1
5432;-1336;1
5432;-1371;1
5432;-1315;1
5432;-1250;1
5432;-1249;1
5432;-1171;1
5432;-1241;1
5432;-1247;1
5432;-1227;1
5432;-1209;1
5432;-1226;1
5432;-1212;1
5432;-1220;1
5432;-1217;1
5432;-1220;1
5432;-1202;1
5432;-1206;1
5432;-1242;1
5432;-1174;1
5432;-1151;1
5432;-1142;1
5432;-1046;1
5432;-1143;1
5432;-1134;1
5432;-1167;1
5432;-1152;1
5432;-1161;1
5432;-1142;1
5432;-1140;1
5432;-1143;1
5432;-1108;1
5432;-1109;1
5432;-1116;1
5432;-1137;1
5432;-1083;1
5432;-1048;1
5432;-1173;1
5432;-1083;1
5432;-1164;1
5432;-1146;1
5432;-1158;1
5432;-1166;1
5484;-1127;1
5484;-1136;1
5484;-1137;1
5484;-1120;1
5484;-1135;1
5484;-1098;1
5484;-1102;1
5484;-1096;1
5484;-1107;1
5484;-1080;1
5484;-1086;1
5484;-1070;1
5484;-1049;1
5484;-1043;1
5484;-1041;1
5484;-1003;1
5484;-1013;1
5484;-986;1
5484;-970;1
5484;-949;1
5484;-955;1
5484;-936;1
5484;-945;1
5484;-910;1
5484;-906;1
5484;-906;1
5484;-957;1
5484;-949;1
5484;-987;1
5484;-1057;1
5484;-1052;1
5484;-1085;1
5484;-1097;1
5484;-1082;1
5484;-1101;1
5484;-1075;1
5484;-1099;1
5484;-1134;1
5484;-1164;1
5484;-1168;1
5484;-1206;1
5484;-1253;1
5484;-1243;1
5484;-1250;1
5484;-1209;1
5484;-1211;1
5484;-1191;1
5484;-1145;1
5562;-1077;1
5562;-1029;1
5562;-1023;1
5562;-992;1
5562;-951;1
5562;-910;1
5562;-828;1
5562;-772;1
5562;-799;1
5562;-809;1
5562;-846;1
5562;-910;1
5562;-938;1
5562;-983;1
5562;-1031;1
5562;-1059;1
5562;-1120;1
5562;-1170;1
5562;-1177;1
5562;-1214;1
5562;-1259;1
5562;-1252;1
5562;-1274;1
5562;-1260;1
5562;-1302;1
5562;-1288;1
5562;-1302;1
5562;-1272;1
5562;-1278;1
5562;-1291;1
5562;-1264;1
5562;-1282;1
5562;-1323;1
5562;-1308;1
5562;-1335;1
5562;-1363;1
5562;-1361;1
5562;-1401;1
5562;-1398;1
5562;-1425;1
5562;-1435;1
5562;-1428;1
5562;-1428;1
5562;-1419;1
5562;-1412;1
5562;-1370;1
5562;-1378;1
5562;-1365;1
5562;-1363;1
5562;-1329;1
5562;-1334;1
5562;-1323;1
5562;-1335;1
5562;-1330;1
5591;-1329;1
5591;-1332;1
5591;-1347;1
5591;-1311;1
5591;-1308;1
5591;-1293;1
5591;-1282;1
5591;-1258;1
5591;-1243;1
5591;-1214;1
5591;-1222;1
5591;-1186;1
5591;-1187;1
5591;-1152;1
5591;-1145;1
5591;-1090;1
5591;-1089;1
5591;-1051;1
5591;-1037;1
5591;-975;1
5591;-979;1
5591;-938;1
5591;-940;1
5591;-897;1
5591;-882;1
5591;-869;1
5591;-853;1
5591;-797;1
5591;-783;1
5591;-777;1
5591;-744;1
5591;-694;1
5591;-680;1
5591;-634;1
5591;-603;1
5591;-536;1
5591;-513;1
5591;-461;1
5591;-437;1
5591;-373;1
5591;-363;1
5591;-302;1
5591;-264;1
5591;-209;1
5591;-96;1
5591;-18;1
5591;-43;1
5591;0;1
5645;26;1
5645;-13;1
5645;113;1
5645;186;1
5645;195;1
5645;312;1
5645;258;1
5645;283;1
5645;295;1
5645;334;1
5645;323;1
5645;360;1
5645;378;1
5645;424;1
5645;446;1
5645;480;1
5645;479;1
5645;468;1
5645;534;1
5645;604;1
5645;611;1
5645;710;1
5645;654;1
5645;683;1
5645;710;1
5645;752;1
5645;762;1
5645;808;1
5645;827;1
5645;839;1
5645;885;1
5645;902;1
5645;906;1
5645;867;1
5645;937;1
5645;941;1
5645;978;1
5645;1051;1
5645;962;1
5645;988;1
5645;1001;1
5645;989;1
5645;1010;1
5645;1016;1
5645;990;1
5645;1026;1
5645;1012;1
5645;994;1
5645;1017;1
5645;931;1
5645;971;1
5645;1005;1
5645;979;1
5645;1071;1
5698;976;1
5698;969;1
5698;958;1
5698;982;1
5698;962;1
5698;969;1
5698;998;1
5698;1006;1
5698;1037;1
5698;1020;1
5698;1008;1
5698;933;1
5698;975;1
5698;958;1
5698;963;1
5698;1007;1
5698;906;1
5698;854;1
5698;832;1
5698;818;1
5698;802;1
5698;820;1
5698;797;1
5698;781;1
5698;780;1
5698;746;1
5698;730;1
5698;672;1
5698;700;1
5698;728;1
5698;716;1
5698;792;1
5698;697;1
5698;706;1
5698;681;1
5698;692;1
5698;672;1
5698;652;1
5698;632;1
5698;639;1
5698;607;1
5698;591;1
5698;590;1
5698;495;1
5698;519;1
5698;531;1
5698;496;1
5698;566;1
5698;456;1
5698;468;1
5698;458;1
5698;463;1
5698;433;1
5698;399;1
5749;386;1
5749;381;1
5749;360;1
5749;349;1
5749;318;1
5749;214;1
5749;280;1
5749;294;1
5749;278;1
5749;350;1
5749;257;1
5749;229;1
5749;230;1
5749;215;1
5749;203;1
5749;119;1
5749;121;1
5749;197;1
5749;220;1
5749;223;1
5749;203;1
5749;204;1
5749;167;1
5749;181;1
5749;145;1
5749;130;1
5749;90;1
5749;96;1
5749;72;1
5749;81;1
5749;40;1
5749;58;1
5749;49;1
5749;54;1
5749;48;1
5749;53;1
5749;33;1
5749;80;1
5749;65;1
5749;79;1
5749;68;1
5749;83;1
5749;61;1
5749;51;1
5749;29;1
5749;-19;1
5749;-45;1
5749;-99;1
5800;-109;1
5800;-91;1
5800;-85;1
5800;-74;1
5800;-103;1
5800;-72;1
5800;-55;1
5800;-35;1
5800;-62;1
5800;-52;1
5800;-80;1
5800;-76;1
5800;-107;1
5800;-119;1
5800;-128;1
5800;-119;1
5800;-158;1
5800;-142;1
5800;-159;1
5800;-163;1
5800;-184;1
5800;-173;1
5800;-203;1
5800;-192;1
5800;-202;1
5800;-195;1
5800;-183;1
5800;-159;1
5800;-182;1
5800;-165;1
5800;-202;1
5800;-178;1
5800;-202;1
5800;-187;1
5800;-210;1
5800;-231;1
5800;-232;1
5800;-210;1
5800;-218;1
5800;-211;1
5800;-208;1
5800;-228;1
5800;-221;1
5800;-237;1
5800;-264;1
5800;-233;1
5800;-252;1
5800;-279;1
5856;-273;1
5856;-276;1
5856;-293;1
5856;-271;1
5856;-284;1
5856;-252;1
5856;-274;1
5856;-266;1
5856;-277;1
5856;-258;1
5856;-270;1
5856;-297;1
5856;-294;1
5856;-318;1
5856;-339;1
5856;-333;1
5856;-339;1
5856;-286;1
5856;-312;1
5856;-338;1
5856;-365;1
5856;-349;1
5856;-379;1
5856;-363;1
5856;-372;1
5856;-371;1
5856;-392;1
5856;-391;1
5856;-374;1
5856;-376;1
5856;-381;1
5856;-402;1
5856;-446;1
5856;-440;1
5856;-462;1
5856;-483;1
5856;-435;1
5856;-429;1
5856;-441;1
5856;-428;1
5856;-449;1
5856;-453;1
5856;-468;1
5856;-452;1
5856;-478;1
5856;-449;1
5856;-474;1
5856;-437;1
5856;-428;1
5856;-397;1
5856;-428;1
5856;-422;1
5856;-442;1
5856;-475;1
5906;-478;1
5906;-502;1
5906;-520;1
5906;-513;1
5906;-531;1
5906;-545;1
5906;-522;1
5906;-520;1
5906;-514;1
5906;-480;1
5906;-470;1
5906;-444;1
5906;-461;1
5906;-453;1
5906;-473;1
5906;-471;1
5906;-498;1
5906;-528;1
5906;-562;1
5906;-570;1
5906;-583;1
5906;-558;1
5906;-575;1
5906;-574;1
5906;-592;1
5906;-592;1
5906;-587;1
5906;-555;1
5906;-552;1
5906;-548;1
5906;-520;1
5906;-523;1
5906;-530;1
5906;-495;1
5906;-512;1
5906;-502;1
5906;-516;1
5906;-538;1
5906;-575;1
5906;-584;1
5906;-606;1
5906;-570;1
5906;-583;1
5906;-604;1
5906;-624;1
5906;-601;1
5906;-615;1
5906;-601;1
5906;-621;1
5906;-627;1
5906;-625;1
5906;-594;1
5906;-591;1
5906;-555;1
5960;-552;1
5960;-545;1
5960;-565;1
5960;-559;1
5960;-585;1
5960;-579;1
5960;-596;1
5960;-606;1
5960;-644;1
5960;-661;1
5960;-689;1
5960;-704;1
5960;-718;1
5960;-732;1
5960;-720;1
5960;-670;1
5960;-682;1
5960;-663;1
5960;-660;1
5960;-658;1
5960;-672;1
5960;-660;1
5960;-692;1
5960;-663;1
5960;-675;1
5960;-677;1
5960;-665;1
5960;-648;1
5960;-672;1
5960;-682;1
5960;-644;1
5960;-651;1
5960;-663;1
5960;-650;1
5960;-659;1
5960;-643;1
5960;-680;1
5960;-651;1
5960;-678;1
5960;-649;1
5960;-649;1
5960;-652;1
5960;-660;1
5960;-640;1
5960;-660;1
5960;-635;1
5960;-625;1
5960;-634;1
5960;-643;1
5960;-644;1
5960;-666;1
5960;-658;1
5960;-683;1
5960;-668;1
6011;-688;1
6011;-704;1
6011;-733;1
6011;-733;1
6011;-755;1
6011;-779;1
6011;-771;1
6011;-772;1
6011;-762;1
6011;-721;1
6011;-721;1
6011;-689;1
6011;-697;1
6011;-707;1
6011;-728;1
6011;-722;1
6011;-750;1
6011;-721;1
6011;-738;1
6011;-730;1
6011;-719;1
6011;-696;1
6011;-696;1
6011;-670;1
6011;-695;1
6011;-684;1
6011;-702;1
6011;-674;1
6011;-697;1
6011;-701;1
6011;-698;1
6011;-683;1
6011;-710;1
6011;-694;1
6011;-702;1
6011;-703;1
6011;-691;1
6011;-702;1
6011;-719;1
6011;-680;1
6011;-708;1
6011;-687;1
6063;-625;1
6063;-625;1
6063;-625;1
6063;-625;1
6063;-625;1
6063;-625;1
6063;-625;1
6063;-625;1
6063;-625;1
6063;-625;1
6063;-625;1
6063;-625;1
6063;-625;1
6063;-599;1
6063;-595;1
6063;-570;1
6063;-610;1
6063;-624;1
6063;-655;1
6063;-664;1
6063;-706;1
6063;-708;1
6063;-730;1
6063;-714;1
6063;-735;1
6063;-729;1
6063;-747;1
6063;-744;1
6063;-766;1
6063;-727;1
6063;-740;1
6063;-726;1
6063;-744;1
6063;-705;1
6063;-689;1
6063;-686;1
6063;-665;1
6063;-674;1
6063;-664;1
6063;-669;1
6063;-657;1
6063;-631;1
6063;-603;1
6063;-616;1
6063;-650;1
6063;-627;1
6063;-643;1
6063;-637;1
6063;-669;1
6063;-671;1
6063;-685;1
6063;-663;1
6063;-669;1
6063;-665;1
6063;-640;1
6063;-633;1
6063;-632;1
6063;-593;1
6063;-581;1
6063;-587;1
6117;-578;1
6117;-582;1
6117;-603;1
6117;-595;1
6117;-622;1
6117;-598;1
6117;-592;1
6117;-589;1
6117;-621;1
6117;-635;1
6117;-675;1
6117;-686;1
6117;-714;1
6117;-702;1
6117;-767;1
6117;-779;1
6117;-818;1
6117;-830;1
6117;-815;1
6117;-834;1
6117;-831;1
6117;-809;1
6117;-799;1
6117;-789;1
6117;-765;1
6117;-741;1
6117;-707;1
6117;-603;1
6117;-553;1
6117;-514;1
6117;-485;1
6117;-434;1
6117;-381;1
6117;-292;1
6117;-263;1
6117;-255;1
6117;-323;1
6117;-361;1
6117;-416;1
6117;-426;1
6117;-481;1
6117;-481;1
6117;-513;1
6117;-514;1
6117;-490;1
6117;-449;1
6117;-442;1
6117;-430;1
6117;-476;1
6117;-452;1
6117;-485;1
6117;-457;1
6117;-455;1
6117;-406;1
6167;-399;1
6167;-388;1
6167;-402;1
6167;-382;1
6167;-412;1
6167;-473;1
6167;-519;1
6167;-564;1
6167;-634;1
6167;-617;1
6167;-617;1
6167;-593;1
6167;-562;1
6167;-504;1
6167;-453;1
6167;-397;1
6167;-426;1
6167;-386;1
6167;-400;1
6167;-437;1
6167;-480;1
6167;-487;1
6167;-542;1
6167;-529;1
6167;-526;1
6167;-504;1
6167;-499;1
6167;-453;1
6167;-422;1
6167;-417;1
6167;-387;1
6167;-389;1
6167;-397;1
6167;-377;1
6167;-386;1
6167;-359;1
6167;-363;1
6167;-350;1
6167;-388;1
6167;-377;1
6167;-377;1
6167;-395;1
6167;-367;1
6167;-365;1
6167;-316;1
6167;-312;1
6167;-318;1
6167;-330;1
6220;-295;1
6220;-272;1
6220;-293;1
6220;-276;1
6220;-299;1
6220;-328;1
6220;-334;1
6220;-360;1
6220;-381;1
6220;-361;1
6220;-394;1
6220;-373;1
6220;-349;1
6220;-291;1
6220;-273;1
6220;-232;1
6220;-243;1
6220;-213;1
6220;-247;1
6220;-230;1
6220;-260;1
6220;-250;1
6220;-275;1
6220;-242;1
6220;-241;1
6220;-233;1
6220;-240;1
6220;-209;1
6220;-220;1
6220;-215;1
6220;-237;1
6220;-226;1
6220;-265;1
6220;-256;1
6220;-263;1
6220;-218;1
6220;-210;1
6220;-173;1
6220;-187;1
6220;-143;1
6220;-113;1
6220;-119;1
6220;-116;1
6220;-106;1
6220;-142;1
6220;-138;1
6220;-177;1
6220;-146;1
6220;-157;1
6220;-166;1
6220;-172;1
6220;-153;1
6220;-157;1
6220;-118;1
6271;-85;1
6271;-55;1
6271;-40;1
6271;-51;1
6271;-81;1
6271;-72;1
6271;-131;1
6271;-133;1
6271;-156;1
6271;-136;1
6271;-147;1
6271;-148;1
6271;-97;1
6271;-73;1
6271;-74;1
6271;-52;1
6271;-56;1
6271;-50;1
6271;-15;1
6271;-39;1
6271;-85;1
6271;-98;1
6271;-141;1
6271;-171;1
6271;-138;1
6271;-140;1
6271;-140;1
6271;-107;1
6271;-106;1
6271;-104;1
6271;-95;1
6271;-100;1
6271;-60;1
6271;-67;1
6271;-81;1
6271;-89;1
6271;-86;1
6271;-90;1
6271;-105;1
6271;-70;1
6271;-48;1
6271;-41;1
6271;-19;1
6271;-24;1
6271;-40;1
6271;-16;1
6271;-35;1
6271;-11;1
6322;-24;1
6322;-38;1
6322;-67;1
6322;-42;1
6322;-41;1
6322;-13;1
6322;-18;1
6322;-12;1
6322;-20;1
6322;11;1
6322;-5;1
6322;24;1
6322;0;1
6322;0;1
6322;-41;1
6322;-32;1
6322;-35;1
6322;-41;1
6322;-40;1
6322;-10;1
6322;-24;1
6322;-9;1
6322;-39;1
6322;-13;1
6322;-15;1
6322;-20;1
6322;-13;1
6322;-24;1
6322;-31;1
6322;-9;1
6322;-9;1
6322;11;1
6322;-8;1
6322;-12;1
6322;-40;1
6322;-26;1
6322;-34;1
6322;-43;1
6322;-74;1
6322;-67;1
6322;-93;1
6322;-62;1
6322;-54;1
6322;-1;1
6322;-15;1
6322;6;1
6322;-3;1
6322;15;1
6378;4;1
6378;0;1
6378;-28;1
6378;-19;1
6378;-59;1
6378;-75;1
6378;-39;1
6378;-47;1
6378;-73;1
6378;-55;1
6378;-80;1
6378;-58;1
6378;-74;1
6378;-94;1
6378;-79;1
6378;-40;1
6378;-70;1
6378;-83;1
6378;-86;1
6378;-94;1
6378;-101;1
6378;-70;1
6378;-51;1
6378;-48;1
6378;-41;1
6378;-47;1
6378;-58;1
6378;-30;1
6378;-36;1
6378;-42;1
6378;-22;1
6378;-21;1
6378;-29;1
6378;-9;1
6378;-16;1
6378;-10;1
6378;-48;1
6378;-42;1
6378;-68;1
6378;-58;1
6378;-78;1
6378;-57;1
6378;-75;1
6378;-71;1
6378;-84;1
6378;-45;1
6378;-43;1
6378;-9;1
6378;-25;1
6378;-27;1
6378;-51;1
6378;-50;1
6378;-85;1
6378;-81;1
6378;-109;1
6378;-109;1
6378;-138;1
6378;-118;1
6378;-120;1
6378;-110;1
6428;-107;1
6428;-113;1
6428;-149;1
6428;-155;1
6428;-203;1
6428;-204;1
6428;-224;1
6428;-215;1
6428;-222;1
6428;-206;1
6428;-215;1
6428;-222;1
6428;-198;1
6428;-189;1
6428;-203;1
6428;-189;1
6428;-213;1
6428;-196;1
6428;-217;1
6428;-190;1
6428;-205;1
6428;-190;1
6428;-215;1
6428;-203;1
6428;-231;1
6428;-234;1
6428;-239;1
6428;-227;1
6428;-251;1
6428;-285;1
6428;-283;1
6428;-326;1
6428;-348;1
6428;-323;1
6428;-341;1
6428;-352;1
6428;-361;1
6428;-322;1
6428;-329;1
6428;-309;1
6428;-328;1
6428;-328;1
6428;-338;1
6428;-366;1
6428;-355;1
6428;-338;1
6428;-364;1
6428;-361;1
6480;-384;1
6480;-380;1
6480;-393;1
6480;-375;1
6480;-380;1
6480;-366;1
6480;-393;1
6480;-369;1
6480;-369;1
6480;-341;1
6480;-359;1
6480;-337;1
6480;-357;1
6480;-343;1
6480;-377;1
6480;-366;1
6480;-380;1
6480;-394;1
6480;-387;1
6480;-411;1
6480;-429;1
6480;-408;1
6480;-423;1
6480;-423;1
6480;-389;1
6480;-402;1
6480;-426;1
6480;-408;1
6480;-433;1
6480;-402;1
6480;-416;1
6480;-383;1
6480;-388;1
6480;-380;1
6480;-380;1
6480;-356;1
6480;-349;1
6480;-347;1
6480;-334;1
6480;-342;1
6480;-371;1
6480;-390;1
6480;-448;1
6480;-453;1
6480;-489;1
6480;-481;1
6480;-513;1
6480;-501;1
6534;-487;1
6534;-472;1
6534;-459;1
6534;-422;1
6534;-431;1
6534;-446;1
6534;-421;1
6534;-422;1
6534;-423;1
6534;-399;1
6534;-418;1
6534;-404;1
6534;-433;1
6534;-435;1
6534;-458;1
6534;-441;1
6534;-475;1
6534;-454;1
6534;-472;1
6534;-448;1
6534;-460;1
6534;-427;1
6534;-437;1
6534;-441;1
6534;-467;1
6534;-444;1
6534;-460;1
6534;-433;1
6534;-455;1
6534;-457;1
6534;-463;1
6534;-464;1
6534;-479;1
6534;-473;1
6534;-457;1
6534;-462;1
6534;-450;1
6534;-458;1
6534;-461;1
6534;-419;1
6534;-405;1
6534;-358;1
6534;-359;1
6534;-341;1
6534;-388;1
6534;-385;1
6534;-417;1
6534;-457;1
6608;-458;1
6608;-475;1
6608;-499;1
6608;-496;1
6608;-520;1
6608;-487;1
6608;-476;1
6608;-469;1
6608;-480;1
6608;-473;1
6608;-505;1
6608;-492;1
6608;-497;1
6608;-473;1
6608;-489;1
6608;-494;1
6608;-510;1
6608;-506;1
6608;-464;1
6608;-447;1
6608;-455;1
6608;-449;1
6608;-471;1
6608;-497;1
6608;-517;1
6608;-518;1
6608;-568;1
6608;-556;1
6608;-605;1
6608;-621;1
6608;-608;1
6608;-608;1
6608;-608;1
6608;-608;1
6608;-608;1
6608;-608;1
6608;-608;1
6608;-608;1
6608;-608;1
6608;-608;1
6608;-608;1
6608;-608;1
6608;-608;1
6608;-601;1
6608;-615;1
6608;-600;1
6608;-620;1
6608;-597;1
6608;-614;1
6608;-630;1
6608;-641;1
6608;-610;1
6608;-625;1
6608;-604;1
6608;-608;1
6608;-562;1
6608;-579;1
6608;-553;1
6608;-561;1
6608;-554;1
6608;-539;1
6608;-554;1
6608;-562;1
6608;-534;1
6608;-544;1
6608;-543;1
6608;-561;1
6608;-549;1
6608;-570;1
6608;-548;1
6608;-558;1
6608;-530;1
6608;-536;1
6608;-537;1
6608;-532;1
6608;-530;1
6608;-542;1
6608;-529;1
6608;-508;1
6608;-509;1
6608;-535;1
6608;-519;1
6608;-525;1
6608;-497;1
6658;-506;1
6658;-522;1
6658;-536;1
6658;-509;1
6658;-531;1
6658;-502;1
6658;-526;1
6658;-517;1
6658;-552;1
6658;-542;1
6658;-570;1
6658;-571;1
6658;-582;1
6658;-595;1
6658;-609;1
6658;-600;1
6658;-632;1
6658;-609;1
6658;-596;1
6658;-567;1
6658;-551;1
6658;-516;1
6658;-526;1
6658;-552;1
6658;-552;1
6658;-573;1
6658;-578;1
6658;-576;1
6658;-598;1
6658;-620;1
6658;-601;1
6658;-593;1
6658;-593;1
6658;-553;1
6658;-528;1
6658;-536;1
6658;-525;1
6658;-521;1
6658;-539;1
6658;-515;1
6658;-511;1
6658;-527;1
6658;-513;1
6658;-523;1
6658;-546;1
6658;-518;1
6658;-538;1
6658;-515;1
6710;-556;1
6710;-540;1
6710;-558;1
6710;-535;1
6710;-542;1
6710;-577;1
6710;-587;1
6710;-631;1
6710;-670;1
6710;-662;1
6710;-691;1
6710;-696;1
6710;-747;1
6710;-763;1
6710;-816;1
6710;-806;1
6710;-783;1
6710;-749;1
6710;-689;1
6710;-680;1
6710;-608;1
6710;-585;1
6710;-560;1
6710;-538;1
6710;-483;1
6710;-461;1
6710;-438;1
6710;-365;1
6710;-296;1
6710;-220;1
6710;-221;1
6710;-255;1
6710;-308;1
6710;-350;1
6710;-414;1
6710;-440;1
6710;-506;1
6710;-528;1
6710;-618;1
6710;-648;1
6710;-715;1
6710;-742;1
6710;-781;1
6710;-805;1
6710;-830;1
6710;-791;1
6710;-785;1
6710;-765;1
6761;-702;1
6761;-679;1
6761;-673;1
6761;-648;1
6761;-661;1
6761;-696;1
6761;-726;1
6761;-794;1
6761;-876;1
6761;-908;1
6761;-976;1
6761;-980;1
6761;-980;1
6761;-957;1
6761;-937;1
6761;-895;1
6761;-892;1
6761;-888;1
6761;-871;1
6761;-859;1
6761;-882;1
6761;-860;1
6761;-878;1
6761;-853;1
6761;-846;1
6761;-841;1
6761;-839;1
6761;-811;1
6761;-799;1
6761;-811;1
6761;-800;1
6761;-822;1
6761;-829;1
6761;-810;1
6761;-827;1
6761;-805;1
6761;-821;1
6761;-832;1
6761;-851;1
6761;-839;1
6761;-855;1
6761;-884;1
6761;-870;1
6761;-888;1
6761;-898;1
6761;-867;1
6761;-861;1
6761;-801;1
6761;-814;1
6761;-791;1
6761;-796;1
6761;-769;1
6761;-759;1
6761;-760;1
6816;-768;1
6816;-752;1
6816;-781;1
6816;-787;1
6816;-799;1
6816;-799;1
6816;-792;1
6816;-801;1
6816;-828;1
6816;-810;1
6816;-822;1
6816;-853;1
6816;-842;1
6816;-844;1
6816;-883;1
6816;-890;1
6816;-946;1
6816;-934;1
6816;-935;1
6816;-951;1
6816;-970;1
6816;-961;1
6816;-983;1
6816;-992;1
6816;-969;1
6816;-976;1
6816;-977;1
6816;-956;1
6816;-960;1
6816;-957;1
6816;-918;1
6816;-900;1
6816;-887;1
6816;-868;1
6816;-883;1
6816;-865;1
6816;-876;1
6816;-872;1
6816;-890;1
6816;-878;1
6816;-901;1
6816;-932;1
6816;-925;1
6816;-924;1
6816;-915;1
6816;-917;1
6816;-905;1
6816;-907;1
6816;-900;1
6816;-897;1
6816;-910;1
6816;-871;1
6816;-884;1
6816;-846;1
6869;-863;1
6869;-847;1
6869;-861;1
6869;-843;1
6869;-844;1
6869;-827;1
6869;-840;1
6869;-834;1
6869;-863;1
6869;-840;1
6869;-863;1
6869;-849;1
6869;-853;1
6869;-851;1
6869;-869;1
6869;-844;1
6869;-844;1
6869;-798;1
6869;-782;1
6869;-750;1
6869;-755;1
6869;-719;1
6869;-724;1
6869;-716;1
6869;-691;1
6869;-700;1
6869;-723;1
6869;-738;1
6869;-752;1
6869;-763;1
6869;-755;1
6869;-763;1
6869;-743;1
6869;-763;1
6869;-785;1
6869;-777;1
6869;-789;1
6869;-774;1
6869;-781;1
6869;-786;1
6869;-819;1
6869;-807;1
6869;-800;1
6869;-812;1
6869;-808;1
6869;-757;1
6869;-757;1
6869;-744;1
6940;-678;1
6940;-667;1
6940;-690;1
6940;-682;1
6940;-734;1
6940;-763;1
6940;-838;1
6940;-878;1
6940;-900;1
6940;-872;1
6940;-886;1
6940;-837;1
6940;-826;1
6940;-774;1
6940;-751;1
6940;-723;1
6940;-741;1
6940;-730;1
6940;-761;1
6940;-772;1
6940;-776;1
6940;-760;1
6940;-776;1
6940;-788;1
6940;-770;1
6940;-773;1
6940;-758;1
6940;-743;1
6940;-725;1
6940;-719;1
6940;-718;1
6940;-714;1
6940;-710;1
6940;-675;1
6940;-692;1
6940;-673;1
6940;-700;1
6940;-710;1
6940;-736;1
6940;-726;1
6940;-750;1
6940;-739;1
6940;-765;1
6940;-738;1
6940;-744;1
6940;-709;1
6940;-715;1
6940;-657;1
6940;-673;1
6940;-654;1
6940;-668;1
6940;-622;1
6940;-617;1
6940;-619;1
6975;-586;1
6975;-588;1
6975;-594;1
6975;-574;1
6975;-576;1
6975;-564;1
6975;-585;1
6975;-574;1
6975;-587;1
6975;-555;1
6975;-575;1
6975;-563;1
6975;-574;1
6975;-575;1
6975;-595;1
6975;-597;1
6975;-607;1
6975;-637;1
6975;-644;1
6975;-653;1
6975;-654;1
6975;-625;1
6975;-642;1
6975;-628;1
6975;-651;1
6975;-677;1
6975;-710;1
6975;-706;1
6975;-716;1
6975;-724;1
6975;-552;1
6975;-552;1
6975;-552;1
6975;-552;1
6975;-552;1
6975;-552;1
6975;-552;1
6975;-552;1
6975;-552;1
6975;-552;1
6975;-552;1
6975;-552;1
6975;-552;1
6975;-554;1
6975;-577;1
6975;-577;1
6975;-632;1
6975;-682;1
6975;-692;1
6975;-721;1
6975;-739;1
6975;-694;1
6975;-697;1
6975;-700;1
7027;-705;1
7027;-680;1
7027;-698;1
7027;-664;1
7027;-669;1
7027;-651;1
7027;-645;1
7027;-646;1
7027;-632;1
7027;-646;1
7027;-658;1
7027;-667;1
7027;-660;1
7027;-673;1
7027;-699;1
7027;-670;1
7027;-665;1
7027;-670;1
7027;-653;1
7027;-648;1
7027;-657;1
7027;-630;1
7027;-636;1
7027;-602;1
7027;-625;1
7027;-623;1
7027;-655;1
7027;-648;1
7027;-675;1
7027;-677;1
7027;-708;1
7027;-690;1
7027;-736;1
7027;-736;1
7027;-762;1
7027;-748;1
7027;-758;1
7027;-737;1
7027;-753;1
7027;-731;1
7027;-755;1
7027;-731;1
7027;-745;1
7027;-715;1
7027;-720;1
7027;-674;1
7027;-660;1
7027;-665;1
7027;-662;1
7027;-651;1
7027;-672;1
7027;-639;1
7027;-660;1
7027;-658;1
7077;-691;1
7077;-704;1
7077;-738;1
7077;-740;1
7077;-765;1
7077;-792;1
7077;-782;1
7077;-764;1
7077;-753;1
7077;-719;1
7077;-705;1
7077;-692;1
7077;-650;1
7077;-638;1
7077;-653;1
7077;-642;1
7077;-657;1
7077;-683;1
7077;-680;1
7077;-688;1
7077;-708;1
7077;-716;1
7077;-746;1
7077;-785;1
7077;-780;1
7077;-788;1
7077;-797;1
7077;-752;1
7077;-754;1
7077;-716;1
7077;-721;1
7077;-690;1
7077;-710;1
7077;-687;1
7077;-683;1
7077;-667;1
7077;-660;1
7077;-656;1
7077;-677;1
7077;-651;1
7077;-643;1
7077;-649;1
7077;-649;1
7077;-653;1
7077;-670;1
7077;-641;1
7077;-645;1
7077;-611;1
7128;-619;1
7128;-595;1
7128;-601;1
7128;-585;1
7128;-595;1
7128;-602;1
7128;-586;1
7128;-594;1
7128;-607;1
7128;-598;1
7128;-618;1
7128;-613;1
7128;-615;1
7128;-625;1
7128;-644;1
7128;-635;1
7128;-654;1
7128;-626;1
7128;-622;1
7128;-570;1
7128;-572;1
7128;-543;1
7128;-542;1
7128;-528;1
7128;-499;1
7128;-518;1
7128;-516;1
7128;-552;1
7128;-605;1
7128;-630;1
7128;-622;1
7128;-613;1
7128;-605;1
7128;-614;1
7128;-627;1
7128;-597;1
7128;-595;1
7128;-571;1
7128;-554;1
7128;-513;1
7128;-513;1
7128;-530;1
7128;-507;1
7128;-501;1
7128;-523;1
7128;-499;1
7128;-521;1
7128;-526;1
7178;-557;1
7178;-561;1
7178;-576;1
7178;-555;1
7178;-561;1
7178;-529;1
7178;-536;1
7178;-545;1
7178;-556;1
7178;-517;1
7178;-526;1
7178;-504;1
7178;-521;1
7178;-519;1
7178;-529;1
7178;-503;1
7178;-513;1
7178;-524;1
7178;-515;1
7178;-536;1
7178;-557;1
7178;-538;1
7178;-535;1
7178;-532;1
7178;-528;1
7178;-527;1
7178;-557;1
7178;-528;1
7178;-529;1
7178;-512;1
7178;-496;1
7178;-496;1
7178;-489;1
7178;-468;1
7178;-471;1
7178;-475;1
7178;-465;1
7178;-487;1
7178;-516;1
7178;-510;1
7178;-525;1
7178;-494;1
7178;-498;1
7178;-492;1
7178;-516;1
7178;-500;1
7178;-529;1
7178;-490;1
7231;-477;1
7231;-466;1
7231;-474;1
7231;-447;1
7231;-461;1
7231;-440;1
7231;-453;1
7231;-427;1
7231;-453;1
7231;-442;1
7231;-477;1
7231;-452;1
7231;-464;1
7231;-428;1
7231;-458;1
7231;-466;1
7231;-510;1
7231;-536;1
7231;-517;1
7231;-490;1
7231;-481;1
7231;-466;1
7231;-459;1
7231;-473;1
7231;-463;1
7231;-467;1
7231;-479;1
7231;-457;1
7231;-465;1
7231;-445;1
7231;-465;1
7231;-446;1
7231;-453;1
7231;-428;1
7231;-450;1
7231;-467;1
7231;-450;1
7231;-455;1
7231;-470;1
7231;-444;1
7231;-453;1
7231;-471;1
7231;-452;1
7231;-457;1
7231;-476;1
7231;-452;1
7231;-470;1
7231;-445;1
7231;-448;1
7231;-475;1
7231;-495;1
7231;-465;1
7231;-468;1
7231;-464;1
7289;-433;1
7289;-447;1
7289;-420;1
7289;-436;1
7289;-443;1
7289;-411;1
7289;-411;1
7289;-426;1
7289;-428;1
7289;-419;1
7289;-417;1
7289;-421;1
7289;-399;1
7289;-405;1
7289;-437;1
7289;-449;1
7289;-495;1
7289;-524;1
7289;-574;1
7289;-588;1
7289;-646;1
7289;-644;1
7289;-673;1
7289;-658;1
7289;-644;1
7289;-601;1
7289;-626;1
7289;-614;1
7289;-610;1
7289;-540;1
7289;-509;1
7289;-498;1
7289;-479;1
7289;-418;1
7289;-403;1
7289;-371;1
7289;-337;1
7289;-309;1
7289;-302;1
7289;-249;1
7289;-203;1
7289;-180;1
7289;-155;1
7289;-196;1
7289;-195;1
7289;-221;1
7289;-267;1
7289;-303;1
7289;-319;1
7289;-350;1
7289;-385;1
7289;-402;1
7289;-435;1
7289;-452;1
7289;-505;1
7289;-512;1
7289;-540;1
7289;-518;1
7289;-528;1
7289;-528;1
7339;-514;1
7339;-530;1
7339;-576;1
7339;-561;1
7339;-565;1
7339;-542;1
7339;-555;1
7339;-539;1
7339;-551;1
7339;-528;1
7339;-533;1
7339;-549;1
7339;-520;1
7339;-555;1
7339;-573;1
7339;-528;1
7339;-521;1
7339;-525;1
7339;-500;1
7339;-510;1
7339;-528;1
7339;-503;1
7339;-514;1
7339;-503;1
7339;-521;1
7339;-518;1
7339;-550;1
7339;-528;1
7339;-549;1
7339;-540;1
7339;-525;1
7339;-503;1
7339;-501;1
7339;-500;1
7339;-493;1
7339;-495;1
7339;-485;1
7339;-492;1
7339;-515;1
7339;-508;1
7339;-535;1
7339;-563;1
7339;-547;1
7339;-541;1
7339;-556;1
7339;-533;1
7339;-517;1
7339;-511;1
7393;-481;1
7393;-483;1
7393;-485;1
7393;-461;1
7393;-483;1
7393;-478;1
7393;-487;1
7393;-479;1
7393;-489;1
7393;-470;1
7393;-499;1
7393;-505;1
7393;-528;1
7393;-548;1
7393;-565;1
7393;-558;1
7393;-597;1
7393;-580;1
7393;-604;1
7393;-590;1
7393;-630;1
7393;-608;1
7393;-611;1
7393;-602;1
7393;-579;1
7393;-532;1
7393;-529;1
7393;-487;1
7393;-512;1
7393;-505;1
7393;-514;1
7393;-506;1
7393;-536;1
7393;-532;1
7393;-557;1
7393;-542;1
7393;-577;1
7393;-569;1
7393;-588;1
7393;-564;1
7393;-569;1
7393;-530;1
7393;-531;1
7393;-541;1
7393;-559;1
7393;-517;1
7393;-534;1
7393;-505;1
7393;-512;1
7393;-495;1
7393;-519;1
7393;-494;1
7393;-501;1
7393;-448;1
7446;-451;1
7446;-454;1
7446;-465;1
7446;-437;1
7446;-441;1
7446;-456;1
7446;-451;1
7446;-475;1
7446;-473;1
7446;-506;1
7446;-520;1
7446;-541;1
7446;-560;1
7446;-568;1
7446;-590;1
7446;-563;1
7446;-562;1
7446;-550;1
7446;-493;1
7446;-464;1
7446;-474;1
7446;-447;1
7446;-470;1
7446;-470;1
7446;-500;1
7446;-531;1
7446;-583;1
7446;-594;1
7446;-654;1
7446;-652;1
7446;-662;1
7446;-619;1
7446;-617;1
7446;-587;1
7446;-582;1
7446;-554;1
7446;-557;1
7446;-556;1
7446;-539;1
7446;-514;1
7446;-551;1
7446;-539;1
7446;-553;1
7446;-545;1
7446;-557;1
7446;-533;1
7446;-532;1
7446;-553;1
7500;-554;1
7500;-547;1
7500;-526;1
7500;-531;1
7500;-528;1
7500;-544;1
7500;-542;1
7500;-542;1
7500;-560;1
7500;-534;1
7500;-527;1
7500;-551;1
7500;-552;1
7500;-554;1
7500;-572;1
7500;-561;1
7500;-581;1
7500;-547;1
7500;-547;1
7500;-554;1
7500;-577;1
7500;-548;1
7500;-539;1
7500;-531;1
7500;-511;1
7500;-527;1
7500;-555;1
7500;-533;1
7500;-552;1
7500;-505;1
7500;-514;1
7500;-499;1
7500;-534;1
7500;-527;1
7500;-543;1
7500;-522;1
7500;-533;1
7500;-536;1
7500;-557;1
7500;-567;1
7500;-599;1
7500;-566;1
7500;-600;1
7500;-590;1
7500;-621;1
7500;-603;1
7500;-588;1
7500;-566;1
7500;-553;1
7500;-552;1
7500;-590;1
7500;-576;1
7500;-591;1
7500;-606;1
7552;-588;1
7552;-568;1
7552;-566;1
7552;-525;1
7552;-529;1
7552;-532;1
7552;-489;1
7552;-480;1
7552;-485;1
7552;-458;1
7552;-490;1
7552;-471;1
7552;-500;1
7552;-492;1
7552;-507;1
7552;-487;1
7552;-512;1
7552;-486;1
7552;-485;1
7552;-478;1
7552;-500;1
7552;-477;1
7552;-506;1
7552;-482;1
7552;-508;1
7552;-492;1
7552;-505;1
7552;-472;1
7552;-458;1
7552;-444;1
7552;-449;1
7552;-427;1
7552;-438;1
7552;-421;1
7552;-409;1
7552;-421;1
7552;-414;1
7552;-406;1
7552;-417;1
7552;-402;1
7552;-415;1
7552;-431;1
7552;-406;1
7552;-403;1
7552;-429;1
7552;-395;1
7552;-406;1
7552;-378;1
7609;-383;1
7609;-391;1
7609;-398;1
7609;-393;1
7609;-425;1
7609;-434;1
7609;-401;1
7609;-414;1
7609;-422;1
7609;-388;1
7609;-383;1
7609;-334;1
7609;-333;1
7609;-335;1
7609;-356;1
7609;-364;1
7609;-382;1
7609;-379;1
7609;-367;1
7609;-386;1
7609;-419;1
7609;-429;1
7609;-478;1
7609;-474;1
7609;-498;1
7609;-453;1
7609;-434;1
7609;-434;1
7609;-428;1
7609;-431;1
7609;-418;1
7609;-408;1
7609;-424;1
7609;-410;1
7609;-429;1
7609;-464;1
7609;-436;1
7609;-432;1
7609;-433;1
7609;-418;1
7609;-443;1
7609;-424;1
7609;-439;1
7609;-426;1
7609;-431;1
7609;-399;1
7609;-419;1
7609;-442;1
7609;-404;1
7609;-410;1
7609;-427;1
7609;-413;1
7609;-429;1
7609;-409;1
7658;-440;1
7658;-465;1
7658;-482;1
7658;-470;1
7658;-494;1
7658;-472;1
7658;-492;1
7658;-468;1
7658;-485;1
7658;-453;1
7658;-432;1
7658;-440;1
7658;-442;1
7658;-451;1
7658;-449;1
7658;-436;1
7658;-411;1
7658;-402;1
7658;-383;1
7658;-377;1
7658;-403;1
7658;-385;1
7658;-392;1
7658;-405;1
7658;-394;1
7658;-414;1
7658;-449;1
7658;-445;1
7658;-479;1
7658;-436;1
7658;-419;1
7658;-395;1
7658;-406;1
7658;-374;1
7658;-390;1
7658;-409;1
7658;-412;1
7658;-436;1
7658;-472;1
7658;-504;1
7658;-541;1
7658;-547;1
7658;-523;1
7658;-519;1
7658;-511;1
7658;-471;1
7658;-475;1
7658;-486;1
7658;-449;1
7658;-442;1
7658;-452;1
7658;-434;1
7658;-451;1
7658;-461;1
7709;-450;1
7709;-445;1
7709;-443;1
7709;-435;1
7709;-464;1
7709;-493;1
7709;-484;1
7709;-476;1
7709;-487;1
7709;-457;1
7709;-452;1
7709;-461;1
7709;-442;1
7709;-437;1
7709;-440;1
7709;-414;1
7709;-443;1
7709;-437;1
7709;-470;1
7709;-458;1
7709;-486;1
7709;-473;1
7709;-486;1
7709;-467;1
7709;-486;1
7709;-460;1
7709;-447;1
7709;-403;1
7709;-403;1
7709;-405;1
7709;-377;1
7709;-389;1
7709;-418;1
7709;-410;1
7709;-414;1
7709;-442;1
7709;-441;1
7709;-470;1
7709;-492;1
7709;-485;1
7709;-501;1
7709;-480;1
7709;-460;1
7709;-450;1
7709;-464;1
7709;-431;1
7709;-431;1
7709;-439;1
7761;-452;1
7761;-452;1
7761;-452;1
7761;-452;1
7761;-452;1
7761;-452;1
7761;-452;1
7761;-452;1
7761;-452;1
7761;-452;1
7761;-452;1
7761;-452;1
7761;-452;1
7761;-487;1
7761;-498;1
7761;-473;1
7761;-502;1
7761;-487;1
7761;-487;1
7761;-479;1
7761;-480;1
7761;-458;1
7761;-458;1
7761;-405;1
7761;-409;1
7761;-396;1
7761;-427;1
7761;-419;1
7761;-468;1
7761;-508;1
7761;-508;1
7761;-527;1
7761;-558;1
7761;-541;1
7761;-555;1
7761;-539;1
7761;-546;1
7761;-511;1
7761;-512;1
7761;-480;1
7761;-498;1
7761;-505;1
7761;-498;1
7761;-496;1
7761;-482;1
7761;-449;1
7761;-460;1
7761;-447;1
7761;-455;1
7761;-455;1
7761;-440;1
7761;-427;1
7761;-447;1
7761;-465;1
7811;-456;1
7811;-469;1
7811;-488;1
7811;-467;1
7811;-476;1
7811;-437;1
7811;-455;1
7811;-439;1
7811;-433;1
7811;-405;1
7811;-437;1
7811;-429;1
7811;-463;1
7811;-463;1
7811;-463;1
7811;-463;1
7811;-463;1
7811;-463;1
7811;-463;1
7811;-463;1
7811;-463;1
7811;-463;1
7811;-463;1
7811;-463;1
7811;-463;1
7811;-466;1
7811;-473;1
7811;-459;1
7811;-492;1
7811;-487;1
7811;-495;1
7811;-507;1
7811;-536;1
7811;-521;1
7811;-527;1
7811;-487;1
7811;-473;1
7811;-462;1
7811;-469;1
7811;-445;1
7811;-444;1
7811;-418;1
7811;-418;1
7811;-419;1
7811;-448;1
7811;-436;1
7811;-453;1
7811;-449;1
7811;-481;1
7811;-482;1
7811;-506;1
7811;-495;1
7811;-531;1
7811;-501;1
7811;-487;1
7811;-476;1
7811;-483;1
7811;-460;1
7811;-484;1
7811;-468;1
7861;-469;1
7861;-460;1
7861;-474;1
7861;-454;1
7861;-478;1
7861;-465;1
7861;-486;1
7861;-465;1
7861;-490;1
7861;-475;1
7861;-496;1
7861;-533;1
7861;-570;1
7861;-573;1
7861;-598;1
7861;-604;1
7861;-641;1
7861;-657;1
7861;-676;1
7861;-693;1
7861;-701;1
7861;-659;1
7861;-647;1
7861;-616;1
7861;-624;1
7861;-582;1
7861;-560;1
7861;-469;1
7861;-431;1
7861;-404;1
7861;-370;1
7861;-349;1
7861;-291;1
7861;-186;1
7861;-176;1
7861;-161;1
7861;-198;1
7861;-233;1
7861;-278;1
7861;-283;1
7861;-322;1
7861;-320;1
7861;-367;1
7861;-406;1
7861;-452;1
7861;-454;1
7861;-477;1
7861;-501;1
7912;-496;1
7912;-521;1
7912;-562;1
7912;-554;1
7912;-557;1
7912;-555;1
7912;-546;1
7912;-516;1
7912;-523;1
7912;-510;1
7912;-516;1
7912;-490;1
7912;-477;1
7912;-480;1
7912;-500;1
7912;-482;1
7912;-500;1
7912;-488;1
7912;-494;1
7912;-483;1
7912;-488;1
7912;-480;1
7912;-499;1
7912;-504;1
7912;-484;1
7912;-487;1
7912;-499;1
7912;-477;1
7912;-480;1
7912;-494;1
7912;-469;1
7912;-465;1
7912;-466;1
7912;-460;1
7912;-482;1
7912;-464;1
7912;-484;1
7912;-484;1
7912;-495;1
7912;-469;1
7912;-489;1
7912;-491;1
7912;-502;1
7912;-503;1
7912;-510;1
7912;-486;1
7912;-490;1
7912;-498;1
7976;-507;1
7976;-483;1
7976;-504;1
7976;-466;1
7976;-481;1
7976;-485;1
7976;-478;1
7976;-489;1
7976;-481;1
7976;-470;1
7976;-458;1
7976;-476;1
7976;-460;1
7976;-468;1
7976;-481;1
7976;-448;1
7976;-460;1
7976;-441;1
7976;-443;1
7976;-451;1
7976;-467;1
7976;-444;1
7976;-456;1
7976;-431;1
7976;-455;1
7976;-451;1
7976;-473;1
7976;-456;1
7976;-479;1
7976;-445;1
7976;-439;1
7976;-437;1
7976;-479;1
7976;-473;1
7976;-488;1
7976;-508;1
7976;-492;1
7976;-514;1
7976;-540;1
7976;-526;1
7976;-537;1
7976;-524;1
7976;-528;1
7976;-499;1
7976;-510;1
7976;-489;1
7976;-489;1
7976;-490;1
7976;-478;1
7976;-479;1
7976;-464;1
7976;-469;1
7976;-468;1
7976;-471;1
7976;-457;1
7976;-462;1
7976;-472;1
7976;-457;1
7976;-483;1
7976;-471;1
8027;-483;1
8027;-467;1
8027;-480;1
8027;-461;1
8027;-481;1
8027;-457;1
8027;-464;1
8027;-465;1
8027;-481;1
8027;-453;1
8027;-476;1
8027;-471;1
8027;-487;1
8027;-451;1
8027;-468;1
8027;-444;1
8027;-452;1
8027;-432;1
8027;-449;1
8027;-430;1
8027;-456;1
8027;-422;1
8027;-435;1
8027;-454;1
8027;-480;1
8027;-469;1
8027;-497;1
8027;-490;1
8027;-496;1
8027;-490;1
8027;-490;1
8027;-505;1
8027;-515;1
8027;-473;1
8027;-485;1
8027;-474;1
8027;-476;1
8027;-465;1
8027;-477;1
8027;-457;1
8027;-476;1
8027;-460;1
8027;-485;1
8027;-500;1
8027;-522;1
8027;-518;1
8027;-510;1
8027;-527;1
8027;-511;1
8027;-530;1
8027;-562;1
8027;-552;1
8027;-565;1
8027;-531;1
8081;-527;1
8081;-513;1
8081;-518;1
8081;-494;1
8081;-511;1
8081;-472;1
8081;-454;1
8081;-449;1
8081;-474;1
8081;-474;1
8081;-493;1
8081;-516;1
8081;-499;1
8081;-534;1
8081;-521;1
8081;-541;1
8081;-540;1
8081;-530;1
8081;-519;1
8081;-498;1
8081;-511;1
8081;-488;1
8081;-502;1
8081;-486;1
8081;-477;1
8081;-470;1
8081;-471;1
8081;-448;1
8081;-471;1
8081;-445;1
8081;-461;1
8081;-441;1
8081;-446;1
8081;-418;1
8081;-436;1
8081;-430;1
8081;-442;1
8081;-441;1
8081;-451;1
8081;-426;1
8081;-438;1
8081;-406;1
8081;-419;1
8081;-421;1
8081;-422;1
8081;-386;1
8081;-388;1
8081;-394;1
8137;-363;1
8137;-366;1
8137;-363;1
8137;-324;1
8137;-316;1
8137;-308;1
8137;-308;1
8137;-293;1
8137;-301;1
8137;-272;1
8137;-289;1
8137;-284;1
8137;-285;1
8137;-279;1
8137;-279;1
8137;-257;1
8137;-261;1
8137;-230;1
8137;-223;1
8137;-209;1
8137;-217;1
8137;-205;1
8137;-231;1
8137;-252;1
8137;-247;1
8137;-281;1
8137;-313;1
8137;-298;1
8137;-301;1
8137;-267;1
8137;-270;1
8137;-248;1
8137;-262;1
8137;-233;1
8137;-256;1
8137;-230;1
8137;-218;1
8137;-213;1
8137;-229;1
8137;-213;1
8137;-228;1
8137;-205;1
8137;-234;1
8137;-217;1
8137;-240;1
8137;-226;1
8137;-243;1
8137;-251;1
8137;-252;1
8137;-225;1
8137;-235;1
8137;-217;1
8137;-228;1
8137;-242;1
8137;-240;1
8137;-232;1
8137;-251;1
8137;-238;1
8137;-271;1
8137;-266;1
8188;-267;1
8188;-265;1
8188;-266;1
8188;-229;1
8188;-235;1
8188;-222;1
8188;-245;1
8188;-230;1
8188;-252;1
8188;-220;1
8188;-242;1
8188;-234;1
8188;-263;1
8188;-259;1
8188;-283;1
8188;-256;1
8188;-282;1
8188;-273;1
8188;-287;1
8188;-291;1
8188;-293;1
8188;-273;1
8188;-279;1
8188;-255;1
8188;-274;1
8188;-269;1
8188;-288;1
8188;-261;1
8188;-280;1
8188;-265;1
8188;-261;1
8188;-264;1
8188;-285;1
8188;-268;1
8188;-276;1
8188;-268;1
8188;-286;1
8188;-294;1
8188;-313;1
8188;-305;1
8188;-320;1
8188;-315;1
8188;-329;1
8188;-338;1
8188;-373;1
8188;-367;1
8188;-390;1
8188;-400;1
8240;-369;1
8240;-369;1
8240;-381;1
8240;-348;1
8240;-357;1
8240;-376;1
8240;-360;1
8240;-376;1
8240;-396;1
8240;-395;1
8240;-417;1
8240;-403;1
8240;-410;1
8240;-416;1
8240;-420;1
8240;-381;1
8240;-412;1
8240;-383;1
8240;-374;1
8240;-367;1
8240;-382;1
8240;-371;1
8240;-389;1
8240;-412;1
8240;-405;1
8240;-413;1
8240;-403;1
8240;-427;1
8240;-439;1
8240;-450;1
8240;-436;1
8240;-429;1
8240;-445;1
8240;-420;1
8240;-433;1
8240;-422;1
8240;-449;1
8240;-446;1
8240;-461;1
8240;-437;1
8240;-464;1
8240;-446;1
8240;-461;1
8240;-449;1
8240;-467;1
8240;-443;1
8240;-459;1
8240;-432;1
8290;-443;1
8290;-448;1
8290;-467;1
8290;-446;1
8290;-447;1
8290;-422;1
8290;-441;1
8290;-435;1
8290;-466;1
8290;-454;1
8290;-466;1
8290;-438;1
8290;-444;1
8290;-451;1
8290;-483;1
8290;-485;1
8290;-508;1
8290;-500;1
8290;-523;1
8290;-512;1
8290;-523;1
8290;-499;1
8290;-511;1
8290;-521;1
8290;-518;1
8290;-503;1
8290;-513;1
8290;-493;1
8290;-511;1
8290;-493;1
8290;-489;1
8290;-485;1
8290;-499;1
8290;-475;1
8290;-496;1
8290;-513;1
8290;-513;1
8290;-513;1
8290;-513;1
8290;-513;1
8290;-513;1
8290;-513;1
8290;-513;1
8290;-513;1
8290;-513;1
8290;-513;1
8290;-513;1
8290;-513;1
8290;-513;1
8290;-521;1
8290;-529;1
8290;-497;1
8290;-511;1
8290;-483;1
8290;-466;1
8290;-448;1
8290;-444;1
8290;-430;1
8290;-442;1
8290;-472;1
8343;-481;1
8343;-522;1
8343;-548;1
8343;-555;1
8343;-594;1
8343;-572;1
8343;-574;1
8343;-562;1
8343;-580;1
8343;-551;1
8343;-546;1
8343;-555;1
8343;-548;1
8343;-553;1
8343;-568;1
8343;-547;1
8343;-560;1
8343;-581;1
8343;-568;1
8343;-571;1
8343;-581;1
8343;-545;1
8343;-536;1
8343;-536;1
8343;-518;1
8343;-521;1
8343;-537;1
8343;-517;1
8343;-516;1
8343;-526;1
8343;-502;1
8343;-523;1
8343;-541;1
8343;-513;1
8343;-545;1
8343;-538;1
8343;-568;1
8343;-565;1
8343;-595;1
8343;-593;1
8343;-600;1
8343;-591;1
8343;-555;1
8343;-569;1
8343;-535;1
8343;-535;1
8343;-528;1
8343;-522;1
8343;-517;1
8343;-499;1
8343;-513;1
8343;-489;1
8343;-494;1
8343;-496;1
8394;-487;1
8394;-503;1
8394;-533;1
8394;-525;1
8394;-554;1
8394;-552;1
8394;-561;1
8394;-563;1
8394;-577;1
8394;-560;1
8394;-577;1
8394;-578;1
8394;-545;1
8394;-538;1
8394;-538;1
8394;-522;1
8394;-555;1
8394;-540;1
8394;-560;1
8394;-550;1
8394;-573;1
8394;-565;1
8394;-599;1
8394;-576;1
8394;-590;1
8394;-597;1
8394;-599;1
8394;-578;1
8394;-580;1
8394;-596;1
8394;-555;1
8394;-556;1
8394;-553;1
8394;-530;1
8394;-538;1
8394;-550;1
8394;-560;1
8394;-542;1
8394;-555;1
8394;-543;1
8394;-532;1
8394;-536;1
8394;-525;1
8394;-517;1
8394;-529;1
8394;-506;1
8394;-525;1
8394;-524;1
8445;-547;1
8445;-539;1
8445;-551;1
8445;-530;1
8445;-556;1
8445;-553;1
8445;-577;1
8445;-576;1
8445;-616;1
8445;-610;1
8445;-643;1
8445;-637;1
8445;-656;1
8445;-660;1
8445;-689;1
8445;-667;1
8445;-668;1
8445;-683;1
8445;-674;1
8445;-659;1
8445;-639;1
8445;-608;1
8445;-610;1
8445;-567;1
8445;-544;1
8445;-474;1
8445;-443;1
8445;-367;1
8445;-323;1
8445;-265;1
8445;-220;1
8445;-175;1
8445;-197;1
8445;-227;1
8445;-265;1
8445;-337;1
8445;-521;1
8445;-521;1
8445;-521;1
8445;-521;1
8445;-521;1
8445;-521;1
8445;-521;1
8445;-521;1
8445;-521;1
8445;-521;1
8445;-521;1
8445;-521;1
8445;-521;1
8445;-536;1
8445;-563;1
8445;-563;1
8445;-582;1
8445;-586;1
8496;-605;1
8496;-607;1
8496;-605;1
8496;-583;1
8496;-618;1
8496;-590;1
8496;-590;1
8496;-582;1
8496;-586;1
8496;-537;1
8496;-564;1
8496;-552;1
8496;-565;1
8496;-573;1
8496;-588;1
8496;-566;1
8496;-574;1
8496;-589;1
8496;-579;1
8496;-594;1
8496;-557;1
8496;-578;1
8496;-563;1
8496;-590;1
8496;-570;1
8496;-586;1
8496;-599;1
8496;-572;1
8496;-566;1
8496;-549;1
8496;-557;1
8496;-554;1
8496;-565;1
8496;-543;1
8496;-551;1
8496;-525;1
8496;-518;1
8496;-531;1
8496;-542;1
8496;-515;1
8496;-525;1
8496;-501;1
8496;-513;1
8496;-502;1
8496;-534;1
8496;-539;1
8496;-570;1
8496;-545;1
8546;-555;1
8546;-565;1
8546;-577;1
8546;-552;1
8546;-565;1
8546;-532;1
8546;-552;1
8546;-531;1
8546;-562;1
8546;-556;1
8546;-567;1
8546;-579;1
8546;-602;1
8546;-589;1
8546;-617;1
8546;-598;1
8546;-600;1
8546;-592;1
8546;-564;1
8546;-527;1
8546;-536;1
8546;-513;1
8546;-511;1
8546;-516;1
8546;-490;1
8546;-471;1
8546;-485;1
8546;-471;1
8546;-499;1
8546;-527;1
8546;-532;1
8546;-554;1
8546;-586;1
8546;-565;1
8546;-588;1
8546;-568;1
8546;-574;1
8546;-551;1
8546;-548;1
8546;-518;1
8546;-535;1
8546;-509;1
8546;-504;1
8546;-521;1
8546;-529;1
8546;-502;1
8546;-514;1
8546;-526;1
8598;-498;1
8598;-514;1
8598;-523;1
8598;-499;1
8598;-513;1
8598;-518;1
8598;-538;1
8598;-527;1
8598;-537;1
8598;-505;1
8598;-513;1
8598;-506;1
8598;-491;1
8598;-498;1
8598;-500;1
8598;-498;1
8598;-511;1
8598;-531;1
8598;-532;1
8598;-543;1
8598;-571;1
8598;-555;1
8598;-580;1
8598;-560;1
8598;-569;1
8598;-543;1
8598;-548;1
8598;-523;1
8598;-546;1
8598;-516;1
8598;-539;1
8598;-523;1
8598;-545;1
8598;-535;1
8598;-567;1
8598;-543;1
8598;-566;1
8598;-557;1
8598;-584;1
8598;-567;1
8598;-585;1
8598;-559;1
8598;-565;1
8598;-575;1
8598;-589;1
8598;-573;1
8598;-586;1
8598;-592;1
8598;-588;1
8598;-563;1
8598;-578;1
8598;-557;1
8598;-589;1
8598;-572;1
8670;-557;1
8670;-552;1
8670;-588;1
8670;-585;1
8670;-591;1
8670;-618;1
8670;-592;1
8670;-586;1
8670;-600;1
8670;-576;1
8670;-585;1
8670;-570;1
8670;-581;1
8670;-567;1
8670;-581;1
8670;-556;1
8670;-578;1
8670;-558;1
8670;-562;1
8670;-559;1
8670;-575;1
8670;-561;1
8670;-568;1
8670;-584;1
8670;-574;1
8670;-575;1
8670;-575;1
8670;-541;1
8670;-541;1
8670;-550;1
8670;-524;1
8670;-538;1
8670;-565;1
8670;-547;1
8670;-570;1
8670;-595;1
8670;-591;1
8670;-606;1
8670;-614;1
8670;-593;1
8670;-601;1
8670;-594;1
8670;-581;1
8670;-611;1
8670;-603;1
8670;-593;1
8670;-605;1
8670;-585;1
8670;-605;1
8670;-604;1
8670;-615;1
8670;-584;1
8670;-584;1
8670;-537;1
8670;-531;1
8670;-502;1
8670;-514;1
8670;-478;1
8670;-507;1
8670;-497;1
8670;-508;1
8670;-526;1
8670;-534;1
8670;-529;1
8670;-558;1
8670;-560;1
8670;-532;1
8670;-543;1
8670;-568;1
8670;-548;1
8670;-560;1
8670;-565;1
8722;-534;1
8722;-532;1
8722;-540;1
8722;-508;1
8722;-512;1
8722;-519;1
8722;-480;1
8722;-488;1
8722;-458;1
8722;-471;1
8722;-467;1
8722;-482;1
8722;-484;1
8722;-496;1
8722;-490;1
8722;-489;1
8722;-493;1
8722;-490;1
8722;-468;1
8722;-461;1
8722;-467;1
8722;-432;1
8722;-462;1
8722;-449;1
8722;-465;1
8722;-454;1
8722;-475;1
8722;-453;1
8722;-455;1
8722;-461;1
8722;-458;1
8722;-457;1
8722;-462;1
8722;-436;1
8722;-457;1
8722;-428;1
8722;-440;1
8722;-442;1
8722;-451;1
8722;-434;1
8722;-440;1
8722;-453;1
8722;-422;1
8722;-425;1
8722;-438;1
8722;-401;1
8722;-421;1
8722;-447;1
8773;-438;1
8773;-457;1
8773;-477;1
8773;-457;1
8773;-445;1
8773;-429;1
8773;-441;1
8773;-447;1
8773;-461;1
8773;-450;1
8773;-484;1
8773;-469;1
8773;-459;1
8773;-476;1
8773;-500;1
8773;-484;1
8773;-492;1
8773;-486;1
8773;-499;1
8773;-484;1
8773;-507;1
8773;-481;1
8773;-486;1
8773;-492;1
8773;-458;1
8773;-463;1
8773;-473;1
8773;-458;1
8773;-490;1
8773;-490;1
8773;-504;1
8773;-469;1
8773;-494;1
8773;-472;1
8773;-487;1
8773;-481;1
8773;-456;1
8773;-474;1
8773;-481;1
8773;-457;1
8773;-471;1
8773;-454;1
8773;-468;1
8773;-443;1
8773;-454;1
8773;-445;1
8773;-448;1
8773;-463;1
8827;-470;1
8827;-465;1
8827;-481;1
8827;-462;1
8827;-478;1
8827;-503;1
8827;-482;1
8827;-482;1
8827;-487;1
8827;-463;1
8827;-491;1
8827;-474;1
8827;-509;1
8827;-491;1
8827;-511;1
8827;-492;1
8827;-511;1
8827;-484;1
8827;-495;1
8827;-477;1
8827;-495;1
8827;-469;1
8827;-458;1
8827;-462;1
8827;-433;1
8827;-432;1
8827;-442;1
8827;-420;1
8827;-441;1
8827;-429;1
8827;-444;1
8827;-449;1
8827;-472;1
8827;-464;1
8827;-483;1
8827;-504;1
8827;-475;1
8827;-466;1
8827;-474;1
8827;-452;1
8827;-465;1
8827;-441;1
8827;-442;1
8827;-445;1
8827;-457;1
8827;-450;1
8827;-485;1
8827;-497;1
8827;-520;1
8827;-528;1
8827;-558;1
8827;-552;1
8827;-584;1
8827;-554;1
8879;-541;1
8879;-522;1
8879;-530;1
8879;-507;1
8879;-522;1
8879;-515;1
8879;-490;1
8879;-475;1
8879;-480;1
8879;-466;1
8879;-493;1
8879;-472;1
8879;-482;1
8879;-474;1
8879;-486;1
8879;-476;1
8879;-501;1
8879;-473;1
8879;-493;1
8879;-465;1
8879;-482;1
8879;-465;1
8879;-478;1
8879;-490;1
8879;-451;1
8879;-468;1
8879;-462;1
8879;-444;1
8879;-435;1
8879;-438;1
8879;-451;1
8879;-451;1
8879;-451;1
8879;-441;1
8879;-453;1
8879;-459;1
8879;-433;1
8879;-433;1
8879;-433;1
8879;-433;1
8879;-433;1
8879;-433;1
8879;-433;1
8879;-433;1
8879;-433;1
8879;-433;1
8879;-433;1
8879;-433;1
8879;-433;1
8879;-433;1
8879;-433;1
8879;-433;1
8879;-433;1
8879;-433;1
8879;-433;1
8879;-446;1
8879;-452;1
8879;-442;1
8879;-466;1
8879;-460;1
8932;-470;1
8932;-477;1
8932;-500;1
8932;-495;1
8932;-507;1
8932;-481;1
8932;-506;1
8932;-480;1
8932;-495;1
8932;-482;1
8932;-508;1
8932;-512;1
8932;-477;1
8932;-501;1
8932;-473;1
8932;-493;1
8932;-507;1
8932;-507;1
8932;-521;1
8932;-519;1
8932;-523;1
8932;-515;1
8932;-529;1
8932;-501;1
8932;-500;1
8932;-487;1
8932;-504;1
8932;-486;1
8932;-505;1
8932;-481;1
8932;-490;1
8932;-456;1
8932;-459;1
8932;-434;1
8932;-458;1
8932;-438;1
8932;-448;1
8932;-420;1
8932;-444;1
8932;-432;1
8932;-449;1
8932;-480;1
8932;-460;1
8932;-470;1
8932;-497;1
8932;-496;1
8932;-514;1
8932;-478;1
8982;-478;1
8982;-472;1
8982;-484;1
8982;-446;1
8982;-447;1
8982;-458;1
8982;-481;1
8982;-477;1
8982;-512;1
8982;-511;1
8982;-524;1
8982;-524;1
8982;-520;1
8982;-524;1
8982;-515;1
8982;-471;1
8982;-480;1
8982;-490;1
8982;-472;1
8982;-476;1
8982;-500;1
8982;-493;1
8982;-510;1
8982;-501;1
8982;-507;1
8982;-518;1
8982;-520;1
8982;-492;1
8982;-489;1
8982;-459;1
8982;-457;1
8982;-458;1
8982;-479;1
8982;-456;1
8982;-470;1
8982;-456;1
8982;-474;1
8982;-451;1
8982;-482;1
8982;-475;1
8982;-496;1
8982;-466;1
9033;-464;1
9033;-467;1
9033;-484;1
9033;-457;1
9033;-466;1
9033;-437;1
9033;-508;1
9033;-508;1
9033;-508;1
9033;-508;1
9033;-508;1
9033;-508;1
9033;-508;1
9033;-508;1
9033;-508;1
9033;-508;1
9033;-508;1
9033;-508;1
9033;-508;1
9033;-508;1
9033;-508;1
9033;-508;1
9033;-508;1
9033;-508;1
9033;-508;1
9033;-495;1
9033;-512;1
9033;-501;1
9033;-527;1
9033;-499;1
9033;-492;1
9033;-485;1
9033;-483;1
9033;-465;1
9033;-477;1
9033;-506;1
9033;-487;1
9033;-490;1
9033;-503;1
9033;-478;1
9033;-490;1
9033;-466;1
9033;-491;1
9033;-476;1
9033;-492;1
9033;-461;1
9033;-481;1
9033;-459;1
9033;-467;1
9033;-462;1
9033;-472;1
9033;-451;1
9033;-464;1
9033;-464;1
9033;-474;1
9033;-484;1
9033;-527;1
9033;-511;1
9033;-526;1
9033;-545;1
9089;-558;1
9089;-570;1
9089;-582;1
9089;-560;1
9089;-595;1
9089;-592;1
9089;-620;1
9089;-641;1
9089;-657;1
9089;-653;1
9089;-688;1
9089;-679;1
9089;-657;1
9089;-632;1
9089;-642;1
9089;-587;1
9089;-550;1
9089;-510;1
9089;-432;1
9089;-407;1
9089;-400;1
9089;-359;1
9089;-322;1
9089;-269;1
9089;-215;1
9089;-246;1
9089;-286;1
9089;-296;1
9089;-335;1
9089;-381;1
9089;-384;1
9089;-423;1
9089;-452;1
9089;-448;1
9089;-490;1
9089;-485;1
9089;-504;1
9089;-529;1
9089;-555;1
9089;-562;1
9089;-569;1
9089;-584;1
9089;-584;1
9089;-555;1
9089;-557;1
9089;-538;1
9089;-548;1
9089;-560;1
9089;-535;1
9089;-530;1
9089;-533;1
9089;-504;1
9089;-500;1
9089;-508;1
9089;-486;1
9089;-487;1
9089;-499;1
9089;-476;1
9089;-495;1
9089;-484;1
9140;-510;1
9140;-531;1
9140;-548;1
9140;-519;1
9140;-547;1
9140;-522;1
9140;-534;1
9140;-500;1
9140;-518;1
9140;-496;1
9140;-498;1
9140;-486;1
9140;-496;1
9140;-490;1
9140;-517;1
9140;-499;1
9140;-504;1
9140;-516;1
9140;-489;1
9140;-493;1
9140;-480;1
9140;-508;1
9140;-496;1
9140;-515;1
9140;-532;1
9140;-536;1
9140;-564;1
9140;-541;1
9140;-557;1
9140;-563;1
9140;-550;1
9140;-566;1
9140;-586;1
9140;-564;1
9140;-577;1
9140;-575;1
9140;-542;1
9140;-538;1
9140;-550;1
9140;-524;1
9140;-541;1
9140;-523;1
9140;-524;1
9140;-519;1
9140;-549;1
9140;-538;1
9140;-561;1
9140;-546;1
9196;-556;1
9196;-530;1
9196;-541;1
9196;-520;1
9196;-556;1
9196;-536;1
9196;-536;1
9196;-534;1
9196;-551;1
9196;-532;1
9196;-563;1
9196;-554;1
9196;-557;1
9196;-543;1
9196;-548;1
9196;-539;1
9196;-541;1
9196;-545;1
9196;-532;1
9196;-529;1
9196;-531;1
9196;-515;1
9196;-523;1
9196;-523;1
9196;-528;1
9196;-514;1
9196;-512;1
9196;-490;1
9196;-512;1
9196;-500;1
9196;-525;1
9196;-519;1
9196;-535;1
9196;-502;1
9196;-515;1
9196;-535;1
9196;-514;1
9196;-523;1
9196;-539;1
9196;-501;1
9196;-509;1
9196;-486;1
9196;-513;1
9196;-498;1
9196;-503;1
9196;-478;1
9196;-503;1
9196;-528;1
9196;-531;1
9196;-551;1
9196;-568;1
9196;-568;1
9196;-595;1
9196;-579;1
9248;-591;1
9248;-587;1
9248;-582;1
9248;-565;1
9248;-585;1
9248;-579;1
9248;-563;1
9248;-538;1
9248;-559;1
9248;-539;1
9248;-546;1
9248;-521;1
9248;-533;1
9248;-532;1
9248;-556;1
9248;-539;1
9248;-571;1
9248;-546;1
9248;-555;1
9248;-554;1
9248;-576;1
9248;-565;1
9248;-583;1
9248;-562;1
9248;-566;1
9248;-527;1
9248;-537;1
9248;-512;1
9248;-536;1
9248;-510;1
9248;-525;1
9248;-515;1
9248;-543;1
9248;-525;1
9248;-550;1
9248;-558;1
9248;-597;1
9248;-580;1
9248;-594;1
9248;-582;1
9248;-612;1
9248;-596;1
9248;-582;1
9248;-579;1
9248;-577;1
9248;-591;1
9248;-579;1
9248;-592;1
9248;-592;1
9248;-585;1
9248;-602;1
9248;-579;1
9248;-595;1
9248;-581;1
9298;-585;1
9298;-584;1
9298;-586;1
9298;-557;1
9298;-557;1
9298;-592;1
9298;-625;1
9298;-625;1
9298;-625;1
9298;-625;1
9298;-625;1
9298;-625;1
9298;-625;1
9298;-625;1
9298;-625;1
9298;-625;1
9298;-625;1
9298;-625;1
9298;-625;1
9298;-624;1
9298;-620;1
9298;-590;1
9298;-591;1
9298;-561;1
9298;-567;1
9298;-582;1
9298;-598;1
9298;-594;1
9298;-606;1
9298;-601;1
9298;-613;1
9298;-598;1
9298;-611;1
9298;-565;1
9298;-583;1
9298;-606;1
9298;-592;1
9298;-571;1
9298;-578;1
9298;-562;1
9298;-578;1
9298;-572;1
9298;-586;1
9298;-577;1
9298;-589;1
9298;-580;1
9298;-584;1
9298;-547;1
9365;-538;1
9365;-509;1
9365;-524;1
9365;-521;1
9365;-536;1
9365;-532;1
9365;-584;1
9365;-563;1
9365;-585;1
9365;-561;1
9365;-578;1
9365;-531;1
9365;-517;1
9365;-486;1
9365;-497;1
9365;-493;1
9365;-524;1
9365;-514;1
9365;-564;1
9365;-564;1
9365;-590;1
9365;-567;1
9365;-582;1
9365;-554;1
9365;-555;1
9365;-521;1
9365;-526;1
9365;-509;1
9365;-522;1
9365;-519;1
9365;-518;1
9365;-508;1
9365;-488;1
9365;-490;1
9365;-474;1
9365;-477;1
9365;-462;1
9365;-472;1
9365;-503;1
9365;-471;1
9365;-502;1
9365;-485;1
9365;-498;1
9365;-483;1
9365;-507;1
9365;-480;1
9365;-493;1
9365;-477;1
9365;-501;1
9365;-525;1
9365;-551;1
9365;-522;1
9365;-519;1
9365;-516;1
9365;-468;1
9365;-463;1
9365;-477;1
9365;-462;1
9365;-472;1
9365;-439;1
9365;-463;1
9365;-458;1
9365;-500;1
9365;-507;1
9365;-542;1
9365;-534;1
9416;-556;1
9416;-516;1
9416;-510;1
9416;-491;1
9416;-509;1
9416;-511;1
9416;-509;1
9416;-515;1
9416;-532;1
9416;-523;1
9416;-543;1
9416;-575;1
9416;-574;1
9416;-562;1
9416;-560;1
9416;-523;1
9416;-509;1
9416;-540;1
9416;-516;1
9416;-522;1
9416;-530;1
9416;-500;1
9416;-551;1
9416;-542;1
9416;-558;1
9416;-575;1
9416;-592;1
9416;-568;1
9416;-571;1
9416;-542;1
9416;-559;1
9416;-536;1
9416;-541;1
9416;-514;1
9416;-533;1
9416;-512;1
9416;-528;1
9416;-531;1
9416;-544;1
9416;-517;1
9416;-513;1
9416;-508;1
9416;-531;1
9416;-502;1
9416;-520;1
9416;-499;1
9416;-506;1
9416;-518;1
9416;-522;1
9416;-513;1
9416;-539;1
9416;-517;1
9416;-512;1
9416;-524;1
9467;-508;1
9467;-483;1
9467;-491;1
9467;-458;1
9467;-477;1
9467;-453;1
9467;-455;1
9467;-476;1
9467;-495;1
9467;-482;1
9467;-510;1
9467;-553;1
9467;-546;1
9467;-557;1
9467;-563;1
9467;-545;1
9467;-542;1
9467;-511;1
9467;-516;1
9467;-529;1
9467;-549;1
9467;-530;1
9467;-551;1
9467;-528;1
9467;-546;1
9467;-506;1
9467;-507;1
9467;-479;1
9467;-489;1
9467;-454;1
9467;-480;1
9467;-489;1
9467;-538;1
9467;-542;1
9467;-586;1
9467;-600;1
9467;-601;1
9467;-606;1
9467;-613;1
9467;-602;1
9467;-619;1
9467;-582;1
9467;-583;1
9467;-564;1
9467;-544;1
9467;-503;1
9467;-521;1
9467;-504;1
9518;-501;1
9518;-505;1
9518;-514;1
9518;-502;1
9518;-528;1
9518;-557;1
9518;-534;1
9518;-534;1
9518;-518;1
9518;-484;1
9518;-491;1
9518;-485;1
9518;-463;1
9518;-477;1
9518;-485;1
9518;-465;1
9518;-471;1
9518;-483;1
9518;-484;1
9518;-495;1
9518;-516;1
9518;-487;1
9518;-494;1
9518;-489;1
9518;-507;1
9518;-489;1
9518;-508;1
9518;-485;1
9518;-492;1
9518;-497;1
9518;-493;1
9518;-484;1
9518;-469;1
9518;-471;1
9518;-470;1
9518;-460;1
9518;-430;1
9518;-435;1
9518;-463;1
9518;-437;1
9518;-461;1
9518;-456;1
9518;-477;1
9518;-498;1
9518;-530;1
9518;-527;1
9518;-561;1
9518;-539;1
9518;-554;1
9518;-560;1
9518;-568;1
9518;-535;1
9518;-534;1
9518;-535;1
9572;-497;1
9572;-492;1
9572;-505;1
9572;-494;1
9572;-494;1
9572;-509;1
9572;-489;1
9572;-501;1
9572;-524;1
9572;-525;1
9572;-557;1
9572;-538;1
9572;-547;1
9572;-510;1
9572;-525;1
9572;-511;1
9572;-517;1
9572;-533;1
9572;-523;1
9572;-523;1
9572;-533;1
9572;-512;1
9572;-508;1
9572;-516;1
9572;-492;1
9572;-497;1
9572;-511;1
9572;-492;1
9572;-497;1
9572;-508;1
9572;-491;1
9572;-494;1
9572;-503;1
9572;-469;1
9572;-488;1
9572;-477;1
9572;-492;1
9572;-471;1
9572;-507;1
9572;-495;1
9572;-523;1
9572;-531;1
9572;-523;1
9572;-521;1
9572;-527;1
9572;-493;1
9572;-504;1
9572;-485;1
9625;-480;1
9625;-472;1
9625;-480;1
9625;-452;1
9625;-472;1
9625;-471;1
9625;-508;1
9625;-507;1
9625;-530;1
9625;-516;1
9625;-535;1
9625;-553;1
9625;-541;1
9625;-532;1
9625;-533;1
9625;-510;1
9625;-504;1
9625;-507;1
9625;-496;1
9625;-499;1
9625;-523;1
9625;-520;1
9625;-556;1
9625;-535;1
9625;-539;1
9625;-545;1
9625;-551;1
9625;-515;1
9625;-517;1
9625;-515;1
9625;-485;1
9625;-495;1
9625;-510;1
9625;-486;1
9625;-501;1
9625;-482;1
9625;-498;1
9625;-498;1
9625;-514;1
9625;-505;1
9625;-549;1
9625;-545;1
9625;-551;1
9625;-546;1
9625;-565;1
9625;-541;1
9625;-566;1
9625;-544;1
9625;-562;1
9625;-549;1
9625;-545;1
9625;-524;1
9625;-534;1
9625;-546;1
9680;-528;1
9680;-519;1
9680;-528;1
9680;-503;1
9680;-505;1
9680;-511;1
9680;-491;1
9680;-479;1
9680;-475;1
9680;-452;1
9680;-469;1
9680;-484;1
9680;-480;1
9680;-496;1
9680;-508;1
9680;-500;1
9680;-526;1
9680;-514;1
9680;-543;1
9680;-555;1
9680;-555;1
9680;-528;1
9680;-545;1
9680;-515;1
9680;-528;1
9680;-498;1
9680;-513;1
9680;-493;1
9680;-506;1
9680;-493;1
9680;-521;1
9680;-509;1
9680;-536;1
9680;-514;1
9680;-527;1
9680;-509;1
9680;-520;1
9680;-504;1
9680;-549;1
9680;-538;1
9680;-548;1
9680;-556;1
9680;-553;1
9680;-555;1
9680;-575;1
9680;-541;1
9680;-534;1
9680;-527;1
9680;-500;1
9680;-497;1
9680;-514;1
9680;-497;1
9680;-514;1
9680;-525;1
9730;-550;1
9730;-524;1
9730;-557;1
9730;-559;1
9730;-564;1
9730;-538;1
9730;-546;1
9730;-521;1
9730;-537;1
9730;-500;1
9730;-508;1
9730;-523;1
9730;-512;1
9730;-508;1
9730;-521;1
9730;-499;1
9730;-506;1
9730;-489;1
9730;-508;1
9730;-513;1
9730;-531;1
9730;-518;1
9730;-530;1
9730;-519;1
9730;-528;1
9730;-503;1
9730;-523;1
9730;-509;1
9730;-514;1
9730;-517;1
9730;-495;1
9730;-475;1
9730;-493;1
9730;-483;1
9730;-477;1
9730;-479;1
9730;-444;1
9730;-442;1
9730;-466;1
9730;-447;1
9730;-470;1
9730;-441;1
9730;-478;1
9730;-480;1
9730;-487;1
9730;-466;1
9730;-469;1
9730;-475;1
9781;-444;1
9781;-442;1
9781;-457;1
9781;-424;1
9781;-451;1
9781;-422;1
9781;-447;1
9781;-475;1
9781;-506;1
9781;-525;1
9781;-569;1
9781;-594;1
9781;-573;1
9781;-578;1
9781;-589;1
9781;-558;1
9781;-559;1
9781;-566;1
9781;-560;1
9781;-593;1
9781;-587;1
9781;-620;1
9781;-655;1
9781;-676;1
9781;-689;1
9781;-726;1
9781;-767;1
9781;-754;1
9781;-799;1
9781;-824;1
9781;-813;1
9781;-754;1
9781;-744;1
9781;-630;1
9781;-599;1
9781;-569;1
9781;-508;1
9781;-583;1
9781;-496;1
9781;-444;1
9781;-421;1
9781;-282;1
9781;-285;1
9781;-216;1
9781;-231;1
9781;-238;1
9781;-277;1
9781;-321;1
9781;-335;1
9781;-359;1
9781;-392;1
9781;-391;1
9781;-443;1
9781;-514;1
9835;-477;1
9835;-493;1
9835;-518;1
9835;-423;1
9835;-510;1
9835;-545;1
9835;-559;1
9835;-571;1
9835;-547;1
9835;-540;1
9835;-553;1
9835;-539;1
9835;-524;1
9835;-515;1
9835;-506;1
9835;-537;1
9835;-469;1
9835;-438;1
9835;-463;1
9835;-391;1
9835;-474;1
9835;-453;1
9835;-468;1
9835;-503;1
9835;-495;1
9835;-518;1
9835;-546;1
9835;-535;1
9835;-547;1
9835;-510;1
9835;-507;1
9835;-568;1
9835;-535;1
9835;-495;1
9835;-497;1
9835;-382;1
9835;-442;1
9835;-439;1
9835;-464;1
9835;-452;1
9835;-477;1
9835;-480;1
9835;-503;1
9835;-501;1
9835;-528;1
9835;-528;1
9835;-558;1
9835;-589;1
9886;-521;1
9886;-516;1
9886;-519;1
9886;-429;1
9886;-525;1
9886;-541;1
9886;-526;1
9886;-533;1
9886;-541;1
9886;-532;1
9886;-643;1
9886;-602;1
9886;-567;1
9886;-551;1
9886;-544;1
9886;-515;1
9886;-539;1
9886;-513;1
9886;-516;1
9886;-479;1
9886;-489;1
9886;-466;1
9886;-463;1
9886;-427;1
9886;-456;1
9886;-436;1
9886;-439;1
9886;-426;1
9886;-458;1
9886;-461;1
9886;-470;1
9886;-474;1
9886;-479;1
9886;-458;1
9886;-477;1
9886;-453;1
9886;-468;1
9886;-483;1
9886;-471;1
9886;-442;1
9886;-466;1
9886;-474;1
9886;-499;1
9886;-508;1
9886;-512;1
9886;-494;1
9886;-511;1
9886;-514;1
9939;-542;1
9939;-533;1
9939;-536;1
9939;-518;1
9939;-517;1
9939;-527;1
9939;-531;1
9939;-548;1
9939;-559;1
9939;-533;1
9939;-536;1
9939;-526;1
9939;-545;1
9939;-507;1
9939;-528;1
9939;-510;1
9939;-513;1
9939;-530;1
9939;-499;1
9939;-514;1
9939;-525;1
9939;-506;1
9939;-496;1
9939;-498;1
9939;-473;1
9939;-479;1
9939;-491;1
9939;-478;1
9939;-501;1
9939;-468;1
9939;-476;1
9939;-472;1
9939;-486;1
9939;-470;1
9939;-488;1
9939;-522;1
9939;-516;1
9939;-510;1
9939;-511;1
9939;-487;1
9939;-511;1
9939;-527;1
9939;-532;1
9939;-542;1
9939;-575;1
9939;-541;1
9939;-567;1
9939;-550;1
9939;-533;1
9939;-520;1
9939;-528;1
9939;-489;1
9939;-489;1
9939;-504;1
9994;-488;1
9994;-514;1
9994;-519;1
9994;-487;1
9994;-513;1
9994;-513;1
9994;-540;1
9994;-523;1
9994;-566;1
9994;-554;1
9994;-562;1
9994;-539;1
9994;-566;1
9994;-560;1
9994;-584;1
9994;-562;1
9994;-586;1
9994;-567;1
9994;-593;1
9994;-579;1
9994;-593;1
9994;-570;1
9994;-585;1
9994;-565;1
9994;-566;1
9994;-550;1
9994;-571;1
9994;-549;1
9994;-558;1
9994;-569;1
9994;-562;1
9994;-558;1
9994;-572;1
9994;-536;1
9994;-522;1
9994;-519;1
9994;-499;1
9994;-504;1
9994;-523;1
9994;-491;1
9994;-523;1
9994;-520;1
9994;-544;1
9994;-549;1
9994;-582;1
9994;-559;1
9994;-588;1
9994;-561;1
9994;-571;1
9994;-547;1
9994;-570;1
9994;-551;1
9994;-573;1
9994;-563;1
10050;-568;1
10050;-561;1
10050;-562;1
10050;-535;1
10050;-540;1
10050;-553;1
10050;-538;1
10050;-561;1
10050;-548;1
10050;-560;1
10050;-561;1
10050;-565;1
10050;-582;1
10050;-602;1
10050;-597;1
10050;-615;1
10050;-608;1
10050;-617;1
10050;-612;1
10050;-595;1
10050;-595;1
10050;-552;1
10050;-544;1
10050;-512;1
10050;-505;1
10050;-503;1
10050;-518;1
10050;-489;1
10050;-490;1
10050;-482;1
10050;-488;1
10050;-499;1
10050;-507;1
10050;-505;1
10050;-519;1
10050;-493;1
10050;-520;1
10050;-509;1
10050;-524;1
10050;-488;1
10050;-510;1
10050;-528;1
10050;-489;1
10050;-490;1
10050;-499;1
10050;-467;1
10050;-477;1
10050;-455;1
10050;-479;1
10050;-466;1
10050;-475;1
10050;-450;1
10050;-470;1
10050;-450;1
10101;-441;1
10101;-434;1
10101;-429;1
10101;-413;1
10101;-416;1
10101;-396;1
10101;-403;1
10101;-395;1
10101;-413;1
10101;-401;1
10101;-387;1
10101;-388;1
10101;-369;1
10101;-377;1
10101;-409;1
10101;-389;1
10101;-419;1
10101;-414;1
10101;-433;1
10101;-451;1
10101;-463;1
10101;-444;1
10101;-470;1
10101;-443;1
10101;-437;1
10101;-415;1
10101;-439;1
10101;-433;1
10101;-474;1
10101;-474;1
10101;-483;1
10101;-484;1
10101;-497;1
10101;-475;1
10101;-473;1
10101;-469;1
10101;-441;1
10101;-452;1
10101;-426;1
10101;-424;1
10101;-431;1
10101;-452;1
10101;-458;1
10101;-441;1
10101;-442;1
10101;-423;1
10101;-438;1
10101;-449;1
10157;-434;1
10157;-460;1
10157;-499;1
10157;-486;1
10157;-506;1
10157;-482;1
10157;-469;1
10157;-460;1
10157;-470;1
10157;-456;1
10157;-477;1
10157;-454;1
10157;-470;1
10157;-450;1
10157;-471;1
10157;-447;1
10157;-453;1
10157;-481;1
10157;-460;1
10157;-471;1
10157;-495;1
10157;-456;1
10157;-461;1
10157;-420;1
10157;-418;1
10157;-430;1
10157;-441;1
10157;-423;1
10157;-456;1
10157;-442;1
10157;-464;1
10157;-469;1
10157;-488;1
10157;-478;1
10157;-486;1
10157;-473;1
10157;-464;1
10157;-453;1
10157;-429;1
10157;-452;1
10157;-448;1
10157;-463;1
10157;-457;1
10157;-463;1
10157;-488;1
10157;-463;1
10157;-477;1
10157;-457;1
10157;-465;1
10157;-444;1
10157;-466;1
10157;-448;1
10157;-471;1
10157;-445;1
10157;-457;1
10157;-461;1
10157;-481;1
10157;-465;1
10157;-478;1
10157;-454;1
10208;-466;1
10208;-467;1
10208;-472;1
10208;-443;1
10208;-458;1
10208;-463;1
10208;-432;1
10208;-455;1
10208;-476;1
10208;-463;1
10208;-480;1
10208;-498;1
10208;-495;1
10208;-530;1
10208;-503;1
10208;-524;1
10208;-537;1
10208;-519;1
10208;-510;1
10208;-490;1
10208;-485;1
10208;-490;1
10208;-503;1
10208;-502;1
10208;-485;1
10208;-456;1
10208;-460;1
10208;-459;1
10208;-488;1
10208;-509;1
10208;-503;1
10208;-520;1
10208;-514;1
10208;-479;1
10208;-497;1
10208;-472;1
10208;-495;1
10208;-460;1
10208;-487;1
10208;-468;1
10208;-503;1
10208;-488;1
10208;-509;1
10208;-505;1
10208;-510;1
10208;-474;1
10208;-488;1
10208;-469;1
10261;-484;1
10261;-461;1
10261;-489;1
10261;-483;1
10261;-493;1
10261;-462;1
10261;-489;1
10261;-473;1
10261;-465;1
10261;-438;1
10261;-453;1
10261;-457;1
10261;-451;1
10261;-444;1
10261;-457;1
10261;-459;1
10261;-440;1
10261;-429;1
10261;-421;1
10261;-429;1
10261;-459;1
10261;-450;1
10261;-471;1
10261;-442;1
10261;-437;1
10261;-465;1
10261;-491;1
10261;-489;1
10261;-522;1
10261;-520;1
10261;-566;1
10261;-554;1
10261;-568;1
10261;-529;1
10261;-525;1
10261;-478;1
10261;-474;1
10261;-472;1
10261;-490;1
10261;-460;1
10261;-473;1
10261;-495;1
10261;-486;1
10261;-511;1
10261;-513;1
10261;-492;1
10261;-503;1
10261;-520;1
10261;-494;1
10261;-499;1
10261;-476;1
10261;-492;1
10261;-490;1
10261;-510;1
10312;-506;1
10312;-495;1
10312;-515;1
10312;-495;1
10312;-520;1
10312;-516;1
10312;-522;1
10312;-508;1
10312;-516;1
10312;-487;1
10312;-495;1
10312;-475;1
10312;-491;1
10312;-483;1
10312;-480;1
10312;-464;1
10312;-483;1
10312;-471;1
10312;-491;1
10312;-482;1
10312;-505;1
10312;-483;1
10312;-492;1
10312;-504;1
10312;-474;1
10312;-480;1
10312;-496;1
10312;-480;1
10312;-486;1
10312;-490;1
10312;-462;1
10312;-471;1
10312;-479;1
10312;-454;1
10312;-484;1
10312;-481;1
10312;-524;1
10312;-507;1
10312;-546;1
10312;-526;1
10312;-504;1
10312;-469;1
10312;-450;1
10312;-439;1
10312;-432;1
10312;-435;1
10312;-448;1
10312;-483;1
10392;-511;1
10392;-543;1
10392;-573;1
10392;-554;1
10392;-557;1
10392;-530;1
10392;-530;1
10392;-509;1
10392;-520;1
10392;-491;1
10392;-510;1
10392;-489;1
10392;-509;1
10392;-512;1
10392;-528;1
10392;-518;1
10392;-547;1
10392;-537;1
10392;-556;1
10392;-525;1
10392;-529;1
10392;-495;1
10392;-492;1
10392;-474;1
10392;-482;1
10392;-475;1
10392;-501;1
10392;-488;1
10392;-506;1
10392;-492;1
10392;-518;1
10392;-493;1
10392;-507;1
10392;-499;1
10392;-507;1
10392;-519;1
10392;-518;1
10392;-515;1
10392;-519;1
10392;-484;1
10392;-478;1
10392;-489;1
10392;-480;1
10392;-482;1
10392;-497;1
10392;-476;1
10392;-486;1
10392;-462;1
10392;-474;1
10392;-458;1
10392;-473;1
10392;-449;1
10392;-453;1
10392;-472;1
10417;-432;1
10417;-432;1
10417;-436;1
10417;-409;1
10417;-418;1
10417;-428;1
10417;-409;1
10417;-424;1
10417;-442;1
10417;-434;1
10417;-441;1
10417;-444;1
10417;-402;1
10417;-411;1
10417;-432;1
10417;-434;1
10417;-468;1
10417;-460;1
10417;-491;1
10417;-517;1
10417;-551;1
10417;-538;1
10417;-540;1
10417;-549;1
10417;-513;1
10417;-497;1
10417;-535;1
10417;-512;1
10417;-489;1
10417;-490;1
10417;-486;1
10417;-518;1
10417;-555;1
10417;-551;1
10417;-561;1
10417;-565;1
10417;-539;1
10417;-537;1
10417;-545;1
10417;-520;1
10417;-543;1
10417;-527;1
10417;-554;1
10417;-545;1
10417;-572;1
10417;-543;1
10417;-544;1
10417;-554;1
10470;-508;1
10470;-509;1
10470;-516;1
10470;-484;1
10470;-485;1
10470;-500;1
10470;-463;1
10470;-472;1
10470;-477;1
10470;-450;1
10470;-468;1
10470;-438;1
10470;-454;1
10470;-460;1
10470;-476;1
10470;-447;1
10470;-458;1
10470;-458;1
10470;-464;1
10470;-457;1
10470;-456;1
10470;-445;1
10470;-462;1
10470;-466;1
10470;-445;1
10470;-452;1
10470;-467;1
10470;-441;1
10470;-463;1
10470;-445;1
10470;-457;1
10470;-454;1
10470;-473;1
10470;-460;1
10470;-470;1
10470;-473;1
10470;-443;1
10470;-451;1
10470;-460;1
10470;-436;1
10470;-446;1
10470;-422;1
10470;-447;1
10470;-413;1
10470;-409;1
10470;-393;1
10470;-419;1
10470;-435;1
10523;-422;1
10523;-452;1
10523;-476;1
10523;-458;1
10523;-492;1
10523;-523;1
10523;-554;1
10523;-537;1
10523;-559;1
10523;-541;1
10523;-550;1
10523;-540;1
10523;-523;1
10523;-515;1
10523;-528;1
10523;-506;1
10523;-500;1
10523;-467;1
10523;-471;1
10523;-471;1
10523;-488;1
10523;-464;1
10523;-489;1
10523;-494;1
10523;-527;1
10523;-514;1
10523;-519;1
10523;-506;1
10523;-535;1
10523;-565;1
10523;-546;1
10523;-574;1
10523;-592;1
10523;-572;1
10523;-609;1
10523;-650;1
10523;-646;1
10523;-679;1
10523;-710;1
10523;-673;1
10523;-661;1
10523;-642;1
10523;-618;1
10523;-611;1
10523;-584;1
10523;-496;1
10523;-451;1
10523;-401;1
10523;-390;1
10523;-352;1
10523;-312;1
10523;-231;1
10523;-184;1
10523;-176;1
10575;-186;1
10575;-202;1
10575;-250;1
10575;-264;1
10575;-206;1
10575;-172;1
10575;-258;1
10575;-280;1
10575;-328;1
10575;-342;1
10575;-384;1
10575;-391;1
10575;-421;1
10575;-446;1
10575;-462;1
10575;-544;1
10575;-479;1
10575;-429;1
10575;-419;1
10575;-302;1
10575;-379;1
10575;-363;1
10575;-380;1
10575;-435;1
10575;-455;1
10575;-501;1
10575;-558;1
10575;-580;1
10575;-629;1
10575;-623;1
10575;-606;1
10575;-638;1
10575;-574;1
10575;-530;1
10575;-522;1
10575;-451;1
10575;-527;1
10575;-505;1
10575;-522;1
10575;-490;1
10575;-499;1
10575;-514;1
10575;-495;1
10575;-484;1
10575;-498;1
10575;-472;1
10575;-494;1
10575;-546;1
10575;-491;1
10575;-490;1
10575;-499;1
10575;-419;1
10575;-502;1
10575;-507;1
10631;-491;1
10631;-498;1
10631;-508;1
10631;-488;1
10631;-494;1
10631;-502;1
10631;-488;1
10631;-498;1
10631;-505;1
10631;-555;1
10631;-509;1
10631;-510;1
10631;-482;1
10631;-424;1
10631;-512;1
10631;-487;1
10631;-500;1
10631;-483;1
10631;-508;1
10631;-483;1
10631;-502;1
10631;-480;1
10631;-498;1
10631;-468;1
10631;-482;1
10631;-542;1
10631;-473;1
10631;-452;1
10631;-448;1
10631;-393;1
10631;-465;1
10631;-453;1
10631;-478;1
10631;-456;1
10631;-580;1
10631;-577;1
10631;-524;1
10631;-526;1
10631;-553;1
10631;-545;1
10631;-567;1
10631;-529;1
10631;-544;1
10631;-529;1
10631;-550;1
10631;-542;1
10631;-574;1
10631;-565;1
10684;-563;1
10684;-531;1
10684;-519;1
10684;-489;1
10684;-516;1
10684;-515;1
10684;-559;1
10684;-545;1
10684;-562;1
10684;-543;1
10684;-556;1
10684;-525;1
10684;-531;1
10684;-523;1
10684;-528;1
10684;-513;1
10684;-541;1
10684;-542;1
10684;-552;1
10684;-540;1
10684;-561;1
10684;-544;1
10684;-554;1
10684;-560;1
10684;-540;1
10684;-532;1
10684;-533;1
10684;-511;1
10684;-526;1
10684;-506;1
10684;-518;1
10684;-519;1
10684;-537;1
10684;-514;1
10684;-536;1
10684;-522;1
10684;-532;1
10684;-534;1
10684;-543;1
10684;-517;1
10684;-533;1
10684;-510;1
10684;-515;1
10684;-517;1
10684;-524;1
10684;-494;1
10684;-501;1
10684;-508;1
10684;-486;1
10684;-494;1
10684;-514;1
10684;-497;1
10684;-507;1
10684;-525;1
10737;-501;1
10737;-506;1
10737;-499;1
10737;-452;1
10737;-451;1
10737;-469;1
10737;-467;1
10737;-493;1
10737;-501;1
10737;-506;1
10737;-517;1
10737;-549;1
10737;-547;1
10737;-547;1
10737;-555;1
10737;-522;1
10737;-528;1
10737;-551;1
10737;-530;1
10737;-528;1
10737;-537;1
10737;-514;1
10737;-520;1
10737;-505;1
10737;-540;1
10737;-525;1
10737;-540;1
10737;-512;1
10737;-542;1
10737;-536;1
10737;-556;1
10737;-563;1
10737;-566;1
10737;-540;1
10737;-568;1
10737;-564;1
10737;-587;1
10737;-576;1
10737;-603;1
10737;-590;1
10737;-606;1
10737;-612;1
10737;-632;1
10737;-621;1
10737;-643;1
10737;-621;1
10737;-632;1
10737;-600;1
10737;-603;1
10737;-596;1
10737;-579;1
10737;-575;1
10737;-565;1
10737;-562;1
10790;-557;1
10790;-560;1
10790;-582;1
10790;-563;1
10790;-589;1
10790;-583;1
10790;-594;1
10790;-601;1
10790;-592;1
10790;-555;1
10790;-570;1
10790;-545;1
10790;-561;1
10790;-535;1
10790;-573;1
10790;-561;1
10790;-580;1
10790;-560;1
10790;-577;1
10790;-567;1
10790;-556;1
10790;-516;1
10790;-528;1
10790;-496;1
10790;-483;1
10790;-472;1
10790;-482;1
10790;-477;1
10790;-503;1
10790;-505;1
10790;-493;1
10790;-471;1
10790;-507;1
10790;-493;1
10790;-520;1
10790;-532;1
10790;-536;1
10790;-515;1
10790;-519;1
10790;-494;1
10790;-504;1
10790;-519;1
10790;-504;1
10790;-493;1
10790;-492;1
10790;-450;1
10790;-477;1
10790;-465;1
10790;-483;1
10790;-483;1
10790;-500;1
10790;-484;1
10790;-496;1
10790;-512;1
10841;-498;1
10841;-511;1
10841;-528;1
10841;-507;1
10841;-520;1
10841;-494;1
10841;-505;1
10841;-481;1
10841;-496;1
10841;-469;1
10841;-468;1
10841;-489;1
10841;-458;1
10841;-457;1
10841;-467;1
10841;-448;1
10841;-460;1
10841;-465;1
10841;-458;1
10841;-435;1
10841;-455;1
10841;-433;1
10841;-451;1
10841;-443;1
10841;-445;1
10841;-438;1
10841;-459;1
10841;-450;1
10841;-458;1
10841;-462;1
10841;-469;1
10841;-464;1
10841;-472;1
10841;-452;1
10841;-457;1
10841;-466;1
10841;-439;1
10841;-441;1
10841;-453;1
10841;-431;1
10841;-447;1
10841;-432;1
10841;-441;1
10841;-425;1
10841;-437;1
10841;-419;1
10841;-436;1
10841;-411;1
10892;-416;1
10892;-387;1
10892;-402;1
10892;-395;1
10892;-416;1
10892;-402;1
10892;-422;1
10892;-429;1
10892;-439;1
10892;-419;1
10892;-414;1
10892;-382;1
10892;-406;1
10892;-413;1
10892;-450;1
10892;-448;1
10892;-468;1
10892;-500;1
10892;-520;1
10892;-542;1
10892;-584;1
10892;-566;1
10892;-552;1
10892;-538;1
10892;-502;1
10892;-484;1
10892;-484;1
10892;-446;1
10892;-452;1
10892;-434;1
10892;-443;1
10892;-433;1
10892;-435;1
10892;-437;1
