19;-492;1
19;-549;1
19;-507;1
19;-489;1
19;-500;1
19;-450;1
19;-510;1
19;-488;1
19;-521;1
19;-521;1
19;-549;1
19;-545;1
19;-564;1
19;-554;1
19;-559;1
19;-519;1
19;-544;1
19;-604;1
19;-531;1
19;-479;1
19;-499;1
19;-408;1
19;-507;1
19;-547;1
19;-542;1
19;-561;1
19;-544;1
19;-501;1
19;-519;1
19;-535;1
19;-519;1
19;-541;1
19;-519;1
19;-591;1
19;-517;1
19;-501;1
19;-516;1
19;-452;1
19;-506;1
19;-497;1
19;-492;1
19;-500;1
19;-501;1
19;-525;1
19;-568;1
19;-543;1
19;-520;1
19;-540;1
19;-534;1
19;-606;1
19;-563;1
19;-521;1
19;-507;1
19;-437;1
70;-492;1
70;-521;1
70;-575;1
70;-548;1
70;-560;1
70;-569;1
70;-542;1
70;-553;1
70;-670;1
70;-649;1
70;-646;1
70;-577;1
70;-569;1
70;-554;1
70;-561;1
70;-539;1
70;-552;1
70;-550;1
70;-525;1
70;-532;1
70;-543;1
70;-568;1
70;-594;1
70;-611;1
70;-594;1
70;-575;1
70;-565;1
70;-534;1
70;-549;1
70;-543;1
70;-549;1
70;-511;1
70;-523;1
70;-514;1
70;-541;1
70;-531;1
70;-536;1
70;-536;1
70;-542;1
70;-507;1
70;-543;1
70;-539;1
70;-515;1
70;-498;1
70;-498;1
70;-477;1
70;-514;1
70;-515;1
121;-541;1
121;-559;1
121;-549;1
121;-524;1
121;-567;1
121;-558;1
121;-579;1
121;-598;1
121;-620;1
121;-595;1
121;-588;1
121;-585;1
121;-617;1
121;-598;1
121;-598;1
121;-559;1
121;-563;1
121;-551;1
121;-562;1
121;-560;1
121;-564;1
121;-528;1
121;-489;1
121;-511;1
121;-502;1
121;-505;1
121;-526;1
121;-509;1
121;-536;1
121;-531;1
121;-549;1
121;-555;1
121;-602;1
121;-568;1
121;-571;1
121;-541;1
121;-543;1
121;-526;1
121;-556;1
121;-543;1
121;-567;1
121;-524;1
121;-511;1
121;-536;1
121;-563;1
121;-559;1
121;-581;1
121;-584;1
177;-556;1
177;-552;1
177;-561;1
177;-574;1
177;-594;1
177;-560;1
177;-558;1
177;-577;1
177;-588;1
177;-567;1
177;-570;1
177;-582;1
177;-556;1
177;-504;1
177;-520;1
177;-524;1
177;-528;1
177;-546;1
177;-544;1
177;-556;1
177;-581;1
177;-563;1
177;-603;1
177;-627;1
177;-605;1
177;-585;1
177;-584;1
177;-569;1
177;-590;1
177;-606;1
177;-579;1
177;-578;1
177;-552;1
177;-513;1
177;-542;1
177;-567;1
177;-563;1
177;-587;1
177;-600;1
177;-579;1
177;-601;1
177;-589;1
177;-636;1
177;-636;1
177;-617;1
177;-571;1
177;-582;1
177;-555;1
177;-582;1
177;-598;1
177;-606;1
177;-570;1
177;-550;1
177;-557;1
261;-586;1
261;-593;1
261;-590;1
261;-580;1
261;-569;1
261;-581;1
261;-563;1
261;-571;1
261;-615;1
261;-585;1
261;-597;1
261;-569;1
261;-576;1
261;-559;1
261;-578;1
261;-555;1
261;-574;1
261;-521;1
261;-510;1
261;-504;1
261;-542;1
261;-523;1
261;-536;1
261;-549;1
261;-518;1
261;-514;1
261;-525;1
261;-531;1
261;-529;1
261;-486;1
261;-439;1
261;-434;1
261;-432;1
261;-417;1
261;-449;1
261;-482;1
261;-500;1
261;-498;1
261;-507;1
261;-526;1
261;-535;1
261;-502;1
261;-500;1
261;-477;1
261;-470;1
261;-446;1
261;-470;1
261;-481;1
261;-486;1
261;-484;1
261;-497;1
261;-486;1
261;-489;1
261;-511;1
261;-489;1
261;-491;1
261;-468;1
261;-420;1
261;-451;1
261;-446;1
261;-472;1
261;-477;1
261;-489;1
261;-469;1
261;-489;1
261;-512;1
261;-506;1
261;-515;1
261;-495;1
261;-461;1
261;-474;1
261;-456;1
261;-478;1
261;-461;1
261;-494;1
261;-485;1
261;-477;1
261;-486;1
261;-521;1
261;-516;1
261;-543;1
261;-531;1
261;-537;1
261;-522;1
311;-509;1
311;-501;1
311;-522;1
311;-490;1
311;-481;1
311;-493;1
311;-477;1
311;-492;1
311;-515;1
311;-506;1
311;-534;1
311;-481;1
311;-464;1
311;-474;1
311;-506;1
311;-485;1
311;-489;1
311;-495;1
311;-469;1
311;-474;1
311;-490;1
311;-499;1
311;-531;1
311;-480;1
311;-469;1
311;-440;1
311;-452;1
311;-449;1
311;-486;1
311;-486;1
311;-514;1
311;-467;1
311;-479;1
311;-485;1
311;-505;1
311;-516;1
311;-504;1
311;-500;1
311;-482;1
311;-490;1
311;-488;1
311;-528;1
311;-513;1
311;-490;1
311;-489;1
311;-470;1
311;-494;1
311;-491;1
364;-511;1
364;-526;1
364;-526;1
364;-477;1
364;-506;1
364;-499;1
364;-510;1
364;-492;1
364;-500;1
364;-475;1
364;-492;1
364;-468;1
364;-506;1
364;-530;1
364;-537;1
364;-505;1
364;-517;1
364;-495;1
364;-521;1
364;-515;1
364;-543;1
364;-527;1
364;-511;1
364;-487;1
364;-513;1
364;-507;1
364;-529;1
364;-517;1
364;-516;1
364;-485;1
364;-501;1
364;-483;1
364;-536;1
364;-500;1
364;-496;1
364;-480;1
364;-480;1
364;-470;1
364;-487;1
364;-487;1
364;-515;1
364;-482;1
364;-469;1
364;-472;1
364;-499;1
364;-489;1
364;-507;1
364;-484;1
364;-475;1
364;-460;1
364;-483;1
364;-468;1
364;-488;1
364;-492;1
421;-479;1
421;-500;1
421;-509;1
421;-512;1
421;-552;1
421;-545;1
421;-573;1
421;-529;1
421;-536;1
421;-535;1
421;-552;1
421;-535;1
421;-505;1
421;-495;1
421;-491;1
421;-466;1
421;-493;1
421;-545;1
421;-543;1
421;-515;1
421;-531;1
421;-514;1
421;-516;1
421;-528;1
421;-532;1
421;-530;1
421;-526;1
421;-474;1
421;-492;1
421;-514;1
421;-515;1
421;-517;1
421;-529;1
421;-502;1
421;-516;1
421;-498;1
421;-547;1
421;-550;1
421;-554;1
421;-508;1
421;-524;1
421;-501;1
421;-516;1
421;-528;1
421;-549;1
421;-530;1
421;-515;1
421;-488;1
421;-532;1
421;-511;1
421;-514;1
421;-498;1
421;-503;1
421;-513;1
472;-490;1
472;-523;1
472;-559;1
472;-597;1
472;-566;1
472;-570;1
472;-548;1
472;-551;1
472;-571;1
472;-544;1
472;-558;1
472;-522;1
472;-474;1
472;-471;1
472;-499;1
472;-495;1
472;-518;1
472;-516;1
472;-524;1
472;-519;1
472;-521;1
472;-538;1
472;-582;1
472;-588;1
472;-556;1
472;-543;1
472;-549;1
472;-537;1
472;-569;1
472;-577;1
472;-543;1
472;-490;1
472;-457;1
472;-457;1
472;-482;1
472;-505;1
472;-488;1
472;-485;1
472;-483;1
472;-461;1
472;-497;1
472;-558;1
472;-592;1
472;-551;1
472;-546;1
472;-512;1
472;-523;1
472;-513;1
525;-512;1
525;-519;1
525;-492;1
525;-465;1
525;-471;1
525;-505;1
525;-509;1
525;-507;1
525;-546;1
525;-529;1
525;-522;1
525;-508;1
525;-528;1
525;-564;1
525;-554;1
525;-523;1
525;-545;1
525;-543;1
525;-570;1
525;-589;1
525;-617;1
525;-596;1
525;-559;1
525;-544;1
525;-537;1
525;-548;1
525;-545;1
525;-527;1
525;-514;1
525;-524;1
525;-494;1
525;-515;1
525;-581;1
525;-576;1
525;-560;1
525;-556;1
525;-531;1
525;-528;1
525;-508;1
525;-522;1
525;-520;1
525;-503;1
525;-443;1
525;-423;1
525;-458;1
525;-474;1
525;-502;1
525;-540;1
525;-526;1
525;-531;1
525;-538;1
525;-556;1
525;-624;1
525;-591;1
610;-568;1
610;-535;1
610;-528;1
610;-493;1
610;-493;1
610;-503;1
610;-477;1
610;-428;1
610;-418;1
610;-440;1
610;-467;1
610;-428;1
610;-427;1
610;-416;1
610;-399;1
610;-379;1
610;-433;1
610;-502;1
610;-564;1
610;-590;1
610;-605;1
610;-590;1
610;-612;1
610;-622;1
610;-605;1
610;-611;1
610;-553;1
610;-487;1
610;-464;1
610;-479;1
610;-495;1
610;-504;1
610;-533;1
610;-512;1
610;-547;1
610;-563;1
610;-631;1
610;-685;1
610;-672;1
610;-604;1
610;-563;1
610;-523;1
610;-508;1
610;-499;1
610;-472;1
610;-447;1
610;-446;1
610;-412;1
610;-476;1
610;-498;1
610;-542;1
610;-550;1
610;-579;1
610;-556;1
610;-578;1
610;-585;1
610;-634;1
610;-609;1
610;-581;1
610;-540;1
610;-546;1
610;-520;1
610;-560;1
610;-553;1
610;-581;1
610;-526;1
610;-493;1
610;-472;1
610;-512;1
610;-499;1
610;-520;1
610;-512;1
610;-495;1
610;-472;1
610;-461;1
610;-472;1
610;-522;1
610;-516;1
664;-473;1
664;-470;1
664;-477;1
664;-460;1
664;-496;1
664;-498;1
664;-518;1
664;-457;1
664;-436;1
664;-451;1
664;-501;1
664;-507;1
664;-537;1
664;-535;1
664;-540;1
664;-522;1
664;-549;1
664;-569;1
664;-603;1
664;-547;1
664;-545;1
664;-541;1
664;-544;1
664;-566;1
664;-571;1
664;-591;1
664;-590;1
664;-526;1
664;-549;1
664;-549;1
664;-553;1
664;-531;1
664;-572;1
664;-537;1
664;-539;1
664;-546;1
664;-590;1
664;-652;1
664;-663;1
664;-607;1
664;-618;1
664;-602;1
664;-608;1
664;-608;1
664;-643;1
664;-636;1
664;-575;1
664;-532;1
664;-518;1
664;-529;1
664;-531;1
664;-510;1
664;-528;1
664;-503;1
717;-513;1
717;-495;1
717;-564;1
717;-575;1
717;-550;1
717;-530;1
717;-519;1
717;-521;1
717;-534;1
717;-519;1
717;-546;1
717;-520;1
717;-492;1
717;-492;1
717;-526;1
717;-525;1
717;-519;1
717;-516;1
717;-507;1
717;-483;1
717;-500;1
717;-524;1
717;-597;1
717;-580;1
717;-555;1
717;-522;1
717;-496;1
717;-475;1
717;-478;1
717;-498;1
717;-507;1
717;-464;1
717;-457;1
717;-476;1
717;-532;1
717;-532;1
717;-552;1
717;-537;1
717;-500;1
717;-423;1
717;-421;1
717;-452;1
717;-495;1
717;-471;1
717;-495;1
717;-508;1
717;-539;1
717;-558;1
717;-604;1
717;-611;1
717;-614;1
717;-547;1
717;-544;1
717;-574;1
773;-564;1
773;-569;1
773;-578;1
773;-527;1
773;-523;1
773;-527;1
773;-538;1
773;-582;1
773;-584;1
773;-546;1
773;-555;1
773;-586;1
773;-616;1
773;-646;1
773;-701;1
773;-722;1
773;-726;1
773;-706;1
773;-769;1
773;-793;1
773;-803;1
773;-761;1
773;-712;1
773;-662;1
773;-623;1
773;-600;1
773;-616;1
773;-559;1
773;-505;1
773;-443;1
773;-421;1
773;-383;1
773;-360;1
773;-283;1
773;-269;1
773;-240;1
773;-202;1
773;-208;1
773;-291;1
773;-323;1
773;-295;1
773;-250;1
773;-302;1
773;-322;1
773;-336;1
773;-348;1
773;-440;1
773;-476;1
773;-455;1
773;-487;1
773;-482;1
773;-509;1
773;-563;1
773;-700;1
773;-636;1
773;-545;1
773;-471;1
773;-403;1
773;-470;1
773;-472;1
825;-471;1
825;-477;1
825;-496;1
825;-483;1
825;-522;1
825;-580;1
825;-633;1
825;-618;1
825;-608;1
825;-654;1
825;-589;1
825;-583;1
825;-552;1
825;-494;1
825;-565;1
825;-492;1
825;-493;1
825;-499;1
825;-526;1
825;-513;1
825;-528;1
825;-492;1
825;-502;1
825;-484;1
825;-527;1
825;-655;1
825;-609;1
825;-555;1
825;-540;1
825;-472;1
825;-522;1
825;-557;1
825;-550;1
825;-573;1
825;-536;1
825;-501;1
825;-513;1
825;-533;1
825;-566;1
825;-558;1
825;-542;1
825;-616;1
881;-546;1
881;-536;1
881;-598;1
881;-533;1
881;-584;1
881;-545;1
881;-553;1
881;-534;1
881;-553;1
881;-541;1
881;-576;1
881;-557;1
881;-513;1
881;-502;1
881;-542;1
881;-598;1
881;-565;1
881;-543;1
881;-541;1
881;-443;1
881;-626;1
881;-616;1
881;-651;1
881;-657;1
881;-597;1
881;-585;1
881;-576;1
881;-545;1
881;-571;1
881;-561;1
881;-580;1
881;-542;1
881;-520;1
881;-528;1
881;-551;1
881;-568;1
881;-579;1
881;-571;1
881;-569;1
881;-533;1
881;-526;1
881;-557;1
881;-603;1
881;-560;1
881;-541;1
881;-513;1
881;-524;1
881;-522;1
881;-528;1
881;-521;1
881;-520;1
881;-445;1
881;-443;1
881;-460;1
881;-502;1
881;-523;1
881;-564;1
881;-566;1
881;-601;1
881;-586;1
952;-627;1
952;-649;1
952;-662;1
952;-612;1
952;-608;1
952;-563;1
952;-563;1
952;-551;1
952;-576;1
952;-580;1
952;-561;1
952;-537;1
952;-544;1
952;-600;1
952;-603;1
952;-639;1
952;-633;1
952;-602;1
952;-574;1
952;-544;1
952;-591;1
952;-607;1
952;-581;1
952;-571;1
952;-536;1
952;-533;1
952;-554;1
952;-550;1
952;-571;1
952;-589;1
952;-527;1
952;-513;1
952;-559;1
952;-572;1
952;-597;1
952;-582;1
952;-581;1
952;-544;1
952;-550;1
952;-537;1
952;-598;1
952;-575;1
952;-556;1
952;-547;1
952;-555;1
952;-530;1
952;-551;1
952;-543;1
952;-570;1
952;-528;1
952;-520;1
952;-515;1
952;-557;1
952;-560;1
952;-596;1
952;-569;1
952;-571;1
952;-534;1
952;-538;1
952;-579;1
952;-619;1
952;-580;1
952;-573;1
952;-544;1
952;-559;1
952;-549;1
952;-562;1
952;-576;1
952;-581;1
952;-500;1
952;-507;1
952;-529;1
1007;-559;1
1007;-569;1
1007;-591;1
1007;-583;1
1007;-604;1
1007;-596;1
1007;-611;1
1007;-631;1
1007;-656;1
1007;-611;1
1007;-613;1
1007;-588;1
1007;-595;1
1007;-608;1
1007;-631;1
1007;-630;1
1007;-620;1
1007;-567;1
1007;-585;1
1007;-595;1
1007;-617;1
1007;-609;1
1007;-622;1
1007;-620;1
1007;-588;1
1007;-600;1
1007;-653;1
1007;-699;1
1007;-694;1
1007;-655;1
1007;-648;1
1007;-625;1
1007;-618;1
1007;-614;1
1007;-639;1
1007;-661;1
1007;-594;1
1007;-576;1
1007;-617;1
1007;-611;1
1007;-628;1
1007;-613;1
1007;-599;1
1007;-578;1
1007;-567;1
1007;-546;1
1007;-607;1
1007;-588;1
1057;-563;1
1057;-523;1
1057;-539;1
1057;-513;1
1057;-543;1
1057;-522;1
1057;-552;1
1057;-521;1
1057;-501;1
1057;-500;1
1057;-539;1
1057;-522;1
1057;-529;1
1057;-501;1
1057;-491;1
1057;-457;1
1057;-448;1
1057;-497;1
1057;-519;1
1057;-498;1
1057;-466;1
1057;-461;1
1057;-439;1
1057;-445;1
1057;-461;1
1057;-485;1
1057;-518;1
1057;-449;1
1057;-449;1
1057;-474;1
1057;-517;1
1057;-518;1
1057;-543;1
1057;-517;1
1057;-504;1
1057;-457;1
1057;-479;1
1057;-505;1
1057;-531;1
1057;-489;1
1057;-497;1
1057;-477;1
1057;-488;1
1057;-523;1
1057;-557;1
1057;-557;1
1057;-549;1
1057;-484;1
1111;-490;1
1111;-516;1
1111;-548;1
1111;-538;1
1111;-553;1
1111;-512;1
1111;-501;1
1111;-490;1
1111;-540;1
1111;-554;1
1111;-538;1
1111;-499;1
1111;-488;1
1111;-480;1
1111;-498;1
1111;-501;1
1111;-512;1
1111;-528;1
1111;-466;1
1111;-431;1
1111;-464;1
1111;-469;1
1111;-479;1
1111;-507;1
1111;-500;1
1111;-503;1
1111;-517;1
1111;-491;1
1111;-548;1
1111;-563;1
1111;-513;1
1111;-483;1
1111;-472;1
1111;-444;1
1111;-486;1
1111;-496;1
1111;-525;1
1111;-508;1
1111;-477;1
1111;-475;1
1111;-533;1
1111;-538;1
1111;-553;1
1111;-559;1
1111;-554;1
1111;-525;1
1111;-513;1
1111;-549;1
1111;-560;1
1111;-533;1
1111;-501;1
1111;-470;1
1111;-478;1
1111;-485;1
1162;-522;1
1162;-541;1
1162;-547;1
1162;-495;1
1162;-486;1
1162;-516;1
1162;-528;1
1162;-542;1
1162;-566;1
1162;-536;1
1162;-518;1
1162;-510;1
1162;-501;1
1162;-563;1
1162;-587;1
1162;-529;1
1162;-519;1
1162;-497;1
1162;-479;1
1162;-518;1
1162;-551;1
1162;-551;1
1162;-568;1
1162;-523;1
1162;-545;1
1162;-553;1
1162;-580;1
1162;-560;1
1162;-568;1
1162;-526;1
1162;-536;1
1162;-507;1
1162;-560;1
1162;-582;1
1162;-581;1
1162;-575;1
1162;-549;1
1162;-555;1
1162;-566;1
1162;-537;1
1162;-554;1
1162;-536;1
1162;-504;1
1162;-481;1
1162;-531;1
1162;-550;1
1162;-558;1
1162;-567;1
1218;-537;1
1218;-508;1
1218;-500;1
1218;-478;1
1218;-556;1
1218;-560;1
1218;-540;1
1218;-510;1
1218;-528;1
1218;-511;1
1218;-556;1
1218;-553;1
1218;-565;1
1218;-545;1
1218;-508;1
1218;-483;1
1218;-543;1
1218;-540;1
1218;-560;1
1218;-535;1
1218;-532;1
1218;-494;1
1218;-508;1
1218;-511;1
1218;-559;1
1218;-518;1
1218;-504;1
1218;-476;1
1218;-479;1
1218;-450;1
1218;-495;1
1218;-500;1
1218;-543;1
1218;-490;1
1218;-498;1
1218;-523;1
1218;-558;1
1218;-564;1
1218;-574;1
1218;-555;1
1218;-539;1
1218;-533;1
1218;-531;1
1218;-580;1
1218;-614;1
1218;-574;1
1218;-578;1
1218;-547;1
1218;-524;1
1218;-534;1
1218;-557;1
1218;-548;1
1218;-543;1
1218;-477;1
1218;-486;1
1218;-504;1
1218;-536;1
1218;-516;1
1218;-535;1
1218;-529;1
1298;-500;1
1298;-505;1
1298;-552;1
1298;-575;1
1298;-571;1
1298;-524;1
1298;-525;1
1298;-512;1
1298;-533;1
1298;-532;1
1298;-548;1
1298;-570;1
1298;-497;1
1298;-479;1
1298;-479;1
1298;-509;1
1298;-524;1
1298;-521;1
1298;-511;1
1298;-498;1
1298;-484;1
1298;-487;1
1298;-534;1
1298;-563;1
1298;-515;1
1298;-487;1
1298;-499;1
1298;-459;1
1298;-473;1
1298;-475;1
1298;-510;1
1298;-499;1
1298;-475;1
1298;-470;1
1298;-529;1
1298;-577;1
1298;-575;1
1298;-589;1
1298;-581;1
1298;-525;1
1298;-502;1
1298;-487;1
1298;-533;1
1298;-505;1
1298;-495;1
1298;-466;1
1298;-479;1
1298;-468;1
1298;-500;1
1298;-487;1
1298;-497;1
1298;-442;1
1298;-437;1
1298;-446;1
1298;-498;1
1298;-493;1
1298;-539;1
1298;-532;1
1298;-556;1
1298;-568;1
1298;-558;1
1298;-603;1
1298;-642;1
1298;-566;1
1298;-539;1
1298;-537;1
1298;-507;1
1298;-523;1
1298;-544;1
1298;-534;1
1298;-536;1
1298;-457;1
1298;-445;1
1298;-478;1
1298;-509;1
1298;-496;1
1298;-520;1
1298;-494;1
1352;-507;1
1352;-488;1
1352;-549;1
1352;-582;1
1352;-600;1
1352;-543;1
1352;-537;1
1352;-538;1
1352;-552;1
1352;-548;1
1352;-580;1
1352;-568;1
1352;-530;1
1352;-481;1
1352;-504;1
1352;-505;1
1352;-514;1
1352;-519;1
1352;-528;1
1352;-492;1
1352;-502;1
1352;-487;1
1352;-556;1
1352;-599;1
1352;-557;1
1352;-512;1
1352;-512;1
1352;-483;1
1352;-503;1
1352;-527;1
1352;-532;1
1352;-529;1
1352;-491;1
1352;-466;1
1352;-518;1
1352;-553;1
1352;-533;1
1352;-544;1
1352;-541;1
1352;-500;1
1352;-485;1
1352;-500;1
1352;-507;1
1352;-477;1
1352;-435;1
1352;-405;1
1352;-429;1
1352;-430;1
1352;-494;1
1352;-529;1
1352;-569;1
1352;-532;1
1352;-549;1
1352;-572;1
1404;-617;1
1404;-615;1
1404;-614;1
1404;-578;1
1404;-569;1
1404;-562;1
1404;-520;1
1404;-574;1
1404;-562;1
1404;-538;1
1404;-542;1
1404;-535;1
1404;-523;1
1404;-532;1
1404;-532;1
1404;-535;1
1404;-520;1
1404;-465;1
1404;-436;1
1404;-474;1
1404;-527;1
1404;-518;1
1404;-555;1
1404;-538;1
1404;-549;1
1404;-549;1
1404;-549;1
1404;-549;1
1404;-549;1
1404;-549;1
1404;-549;1
1404;-549;1
1404;-549;1
1404;-549;1
1404;-549;1
1404;-549;1
1404;-549;1
1404;-551;1
1404;-555;1
1404;-558;1
1404;-577;1
1404;-557;1
1404;-524;1
1404;-469;1
1404;-503;1
1404;-502;1
1404;-525;1
1404;-538;1
1404;-504;1
1404;-501;1
1404;-499;1
1404;-477;1
1404;-550;1
1404;-561;1
1460;-546;1
1460;-508;1
1460;-524;1
1460;-495;1
1460;-502;1
1460;-509;1
1460;-513;1
1460;-495;1
1460;-463;1
1460;-429;1
1460;-476;1
1460;-483;1
1460;-497;1
1460;-506;1
1460;-515;1
1460;-502;1
1460;-518;1
1460;-569;1
1460;-617;1
1460;-634;1
1460;-615;1
1460;-554;1
1460;-558;1
1460;-515;1
1460;-546;1
1460;-528;1
1460;-546;1
1460;-493;1
1460;-485;1
1460;-487;1
1460;-526;1
1460;-513;1
1460;-538;1
1460;-532;1
1460;-531;1
1460;-533;1
1460;-497;1
1460;-557;1
1460;-608;1
1460;-562;1
1460;-558;1
1460;-531;1
1460;-537;1
1460;-547;1
1460;-574;1
1460;-569;1
1460;-575;1
1460;-517;1
1460;-482;1
1460;-502;1
1460;-531;1
1460;-513;1
1460;-537;1
1460;-507;1
1510;-498;1
1510;-479;1
1510;-498;1
1510;-525;1
1510;-558;1
1510;-516;1
1510;-514;1
1510;-502;1
1510;-516;1
1510;-509;1
1510;-549;1
1510;-554;1
1510;-542;1
1510;-481;1
1510;-506;1
1510;-500;1
1510;-529;1
1510;-510;1
1510;-517;1
1510;-488;1
1510;-479;1
1510;-429;1
1510;-486;1
1510;-498;1
1510;-489;1
1510;-473;1
1510;-478;1
1510;-457;1
1510;-478;1
1510;-480;1
1510;-526;1
1510;-560;1
1510;-553;1
1510;-543;1
1510;-571;1
1510;-607;1
1510;-605;1
1510;-612;1
1510;-607;1
1510;-558;1
1510;-537;1
1510;-524;1
1510;-530;1
1510;-528;1
1510;-511;1
1510;-476;1
1510;-486;1
1510;-504;1
1561;-503;1
1561;-540;1
1561;-582;1
1561;-552;1
1561;-527;1
1561;-515;1
1561;-530;1
1561;-544;1
1561;-542;1
1561;-512;1
1561;-518;1
1561;-500;1
1561;-519;1
1561;-522;1
1561;-573;1
1561;-558;1
1561;-548;1
1561;-501;1
1561;-510;1
1561;-513;1
1561;-545;1
1561;-547;1
1561;-575;1
1561;-555;1
1561;-526;1
1561;-556;1
1561;-574;1
1561;-552;1
1561;-540;1
1561;-508;1
1561;-480;1
1561;-466;1
1561;-447;1
1561;-489;1
1561;-485;1
1561;-467;1
1561;-454;1
1561;-466;1
1561;-483;1
1561;-486;1
1561;-530;1
1561;-536;1
1561;-535;1
1561;-512;1
1561;-532;1
1561;-531;1
1561;-553;1
1561;-521;1
1561;-519;1
1561;-460;1
1561;-447;1
1561;-406;1
1561;-432;1
1561;-446;1
1632;-446;1
1632;-419;1
1632;-437;1
1632;-436;1
1632;-472;1
1632;-510;1
1632;-523;1
1632;-561;1
1632;-553;1
1632;-520;1
1632;-563;1
1632;-553;1
1632;-564;1
1632;-565;1
1632;-542;1
1632;-478;1
1632;-454;1
1632;-441;1
1632;-460;1
1632;-457;1
1632;-458;1
1632;-425;1
1632;-456;1
1632;-460;1
1632;-489;1
1632;-511;1
1632;-569;1
1632;-593;1
1632;-614;1
1632;-672;1
1632;-716;1
1632;-753;1
1632;-765;1
1632;-740;1
1632;-735;1
1632;-695;1
1632;-687;1
1632;-681;1
1632;-733;1
1632;-687;1
1632;-656;1
1632;-608;1
1632;-586;1
1632;-530;1
1632;-494;1
1632;-454;1
1632;-436;1
1632;-373;1
1632;-305;1
1632;-297;1
1632;-280;1
1632;-226;1
1632;-248;1
1632;-234;1
1632;-253;1
1632;-248;1
1632;-240;1
1632;-324;1
1632;-361;1
1632;-364;1
1632;-353;1
1632;-303;1
1632;-402;1
1632;-407;1
1632;-443;1
1632;-473;1
1683;-441;1
1683;-412;1
1683;-438;1
1683;-462;1
1683;-502;1
1683;-515;1
1683;-506;1
1683;-567;1
1683;-521;1
1683;-481;1
1683;-532;1
1683;-486;1
1683;-543;1
1683;-505;1
1683;-505;1
1683;-484;1
1683;-499;1
1683;-530;1
1683;-521;1
1683;-522;1
1683;-459;1
1683;-397;1
1683;-447;1
1683;-539;1
1683;-506;1
1683;-481;1
1683;-494;1
1683;-398;1
1683;-472;1
1683;-478;1
1683;-523;1
1683;-565;1
1683;-527;1
1683;-540;1
1683;-569;1
1683;-584;1
1683;-626;1
1683;-627;1
1683;-640;1
1683;-655;1
1683;-558;1
1683;-518;1
1683;-536;1
1683;-483;1
1683;-562;1
1683;-549;1
1683;-540;1
1683;-500;1
1734;-503;1
1734;-516;1
1734;-574;1
1734;-521;1
1734;-498;1
1734;-454;1
1734;-467;1
1734;-552;1
1734;-542;1
1734;-533;1
1734;-573;1
1734;-449;1
1734;-497;1
1734;-545;1
1734;-588;1
1734;-559;1
1734;-557;1
1734;-513;1
1734;-506;1
1734;-478;1
1734;-500;1
1734;-532;1
1734;-567;1
1734;-609;1
1734;-620;1
1734;-549;1
1734;-556;1
1734;-593;1
1734;-608;1
1734;-605;1
1734;-579;1
1734;-509;1
1734;-504;1
1734;-523;1
1734;-552;1
1734;-537;1
1734;-555;1
1734;-520;1
1734;-516;1
1734;-477;1
1734;-516;1
1734;-576;1
1734;-535;1
1734;-503;1
1734;-506;1
1734;-485;1
1734;-486;1
1734;-518;1
1734;-515;1
1734;-516;1
1734;-463;1
1734;-398;1
1734;-446;1
1734;-453;1
1785;-497;1
1785;-527;1
1785;-558;1
1785;-551;1
1785;-580;1
1785;-573;1
1785;-641;1
1785;-672;1
1785;-661;1
1785;-624;1
1785;-626;1
1785;-604;1
1785;-584;1
1785;-609;1
1785;-615;1
1785;-587;1
1785;-521;1
1785;-511;1
1785;-533;1
1785;-535;1
1785;-540;1
1785;-522;1
1785;-518;1
1785;-526;1
1785;-508;1
1785;-553;1
1785;-622;1
1785;-591;1
1785;-595;1
1785;-575;1
1785;-572;1
1785;-568;1
1785;-583;1
1785;-563;1
1785;-576;1
1785;-503;1
1785;-525;1
1785;-525;1
1785;-525;1
1785;-525;1
1785;-525;1
1785;-525;1
1785;-525;1
1785;-525;1
1785;-525;1
1785;-525;1
1785;-525;1
1785;-525;1
1785;-525;1
1785;-520;1
1785;-536;1
1785;-569;1
1785;-612;1
1785;-560;1
1837;-540;1
1837;-535;1
1837;-535;1
1837;-527;1
1837;-549;1
1837;-542;1
1837;-543;1
1837;-460;1
1837;-449;1
1837;-465;1
1837;-502;1
1837;-512;1
1837;-516;1
1837;-510;1
1837;-525;1
1837;-502;1
1837;-546;1
1837;-592;1
1837;-595;1
1837;-576;1
1837;-567;1
1837;-532;1
1837;-524;1
1837;-561;1
1837;-552;1
1837;-590;1
1837;-571;1
1837;-509;1
1837;-546;1
1837;-578;1
1837;-564;1
1837;-574;1
1837;-581;1
1837;-541;1
1837;-547;1
1837;-526;1
1837;-598;1
1837;-614;1
1837;-599;1
1837;-557;1
1837;-574;1
1837;-534;1
1837;-560;1
1837;-588;1
1837;-610;1
1837;-584;1
1837;-555;1
1837;-537;1
1837;-593;1
1837;-606;1
1837;-610;1
1837;-623;1
1837;-604;1
1837;-594;1
1887;-572;1
1887;-596;1
1887;-663;1
1887;-629;1
1887;-619;1
1887;-586;1
1887;-567;1
1887;-565;1
1887;-593;1
1887;-577;1
1887;-609;1
1887;-552;1
1887;-535;1
1887;-554;1
1887;-589;1
1887;-584;1
1887;-608;1
1887;-579;1
1887;-558;1
1887;-542;1
1887;-540;1
1887;-564;1
1887;-594;1
1887;-571;1
1887;-525;1
1887;-528;1
1887;-527;1
1887;-523;1
1887;-568;1
1887;-555;1
1887;-555;1
1887;-491;1
1887;-466;1
1887;-464;1
1887;-483;1
1887;-480;1
1887;-474;1
1887;-457;1
1887;-440;1
1887;-430;1
1887;-468;1
1887;-541;1
1887;-557;1
1887;-518;1
1887;-503;1
1887;-480;1
1887;-472;1
1887;-478;1
1977;-470;1
1977;-486;1
1977;-456;1
1977;-396;1
1977;-437;1
1977;-496;1
1977;-487;1
1977;-495;1
1977;-505;1
1977;-463;1
1977;-446;1
1977;-433;1
1977;-452;1
1977;-487;1
1977;-463;1
1977;-415;1
1977;-424;1
1977;-399;1
1977;-422;1
1977;-452;1
1977;-487;1
1977;-474;1
1977;-444;1
1977;-407;1
1977;-462;1
1977;-455;1
1977;-483;1
1977;-475;1
1977;-471;1
1977;-458;1
1977;-436;1
1977;-434;1
1977;-506;1
1977;-497;1
1977;-478;1
1977;-470;1
1977;-455;1
1977;-448;1
1977;-476;1
1977;-468;1
1977;-499;1
1977;-437;1
1977;-408;1
1977;-428;1
1977;-476;1
1977;-478;1
1977;-492;1
1977;-494;1
1992;-447;1
1992;-436;1
1992;-423;1
1992;-454;1
1992;-504;1
1992;-458;1
1992;-454;1
1992;-429;1
1992;-429;1
1992;-425;1
1992;-456;1
1992;-451;1
1992;-451;1
1992;-385;1
1992;-381;1
1992;-407;1
1992;-475;1
1992;-476;1
1992;-514;1
1992;-489;1
1992;-510;1
1992;-491;1
1992;-525;1
1992;-561;1
1992;-557;1
1992;-524;1
1992;-527;1
1992;-504;1
1992;-510;1
1992;-534;1
1992;-520;1
1992;-520;1
1992;-493;1
1992;-434;1
1992;-459;1
1992;-496;1
1992;-509;1
1992;-509;1
1992;-509;1
1992;-509;1
1992;-509;1
1992;-509;1
1992;-509;1
1992;-509;1
1992;-509;1
1992;-509;1
1992;-509;1
1992;-509;1
1992;-509;1
1992;-550;1
1992;-527;1
1992;-483;1
1992;-493;1
1992;-461;1
1992;-472;1
1992;-495;1
1992;-518;1
1992;-494;1
1992;-441;1
1992;-437;1
2043;-459;1
2043;-484;1
2043;-497;1
2043;-484;1
2043;-479;1
2043;-471;1
2043;-432;1
2043;-446;1
2043;-507;1
2043;-504;1
2043;-506;1
2043;-489;1
2043;-500;1
2043;-491;1
2043;-507;1
2043;-514;1
2043;-530;1
2043;-501;1
2043;-451;1
2043;-475;1
2043;-519;1
2043;-517;1
2043;-542;1
2043;-525;1
2043;-505;1
2043;-477;1
2043;-488;1
2043;-513;1
2043;-562;1
2043;-504;1
2043;-474;1
2043;-466;1
2043;-456;1
2043;-441;1
2043;-486;1
2043;-489;1
2043;-509;1
2043;-461;1
2043;-463;1
2043;-487;1
2043;-542;1
2043;-561;1
2043;-537;1
2043;-521;1
2043;-512;1
2043;-463;1
2043;-467;1
2043;-522;1
2094;-504;1
2094;-488;1
2094;-455;1
2094;-475;1
2094;-489;1
2094;-509;1
2094;-511;1
2094;-546;1
2094;-516;1
2094;-466;1
2094;-490;1
2094;-507;1
2094;-536;1
2094;-522;1
2094;-525;1
2094;-489;1
2094;-482;1
2094;-454;1
2094;-494;1
2094;-536;1
2094;-514;1
2094;-472;1
2094;-483;1
2094;-464;1
2094;-492;1
2094;-519;1
2094;-556;1
2094;-552;1
2094;-512;1
2094;-451;1
2094;-496;1
2094;-514;1
2094;-523;1
2094;-504;1
2094;-499;1
2094;-463;1
2094;-457;1
2094;-441;1
2094;-512;1
2094;-501;1
2094;-482;1
2094;-442;1
2144;-451;1
2144;-427;1
2144;-469;1
2144;-472;1
2144;-509;1
2144;-495;1
2144;-447;1
2144;-478;1
2144;-505;1
2144;-526;1
2144;-546;1
2144;-579;1
2144;-553;1
2144;-536;1
2144;-533;1
2144;-543;1
2144;-605;1
2144;-557;1
2144;-536;1
2144;-504;1
2144;-507;1
2144;-486;1
2144;-512;1
2144;-537;1
2144;-538;1
2144;-498;1
2144;-472;1
2144;-489;1
2144;-541;1
2144;-527;1
2144;-537;1
2144;-517;1
2144;-507;1
2144;-473;1
2144;-476;1
2144;-552;1
2144;-550;1
2144;-523;1
2144;-519;1
2144;-492;1
2144;-503;1
2144;-514;1
2144;-559;1
2144;-562;1
2144;-555;1
2144;-472;1
2144;-480;1
2144;-517;1
2144;-522;1
2144;-513;1
2144;-522;1
2144;-482;1
2144;-461;1
2144;-463;1
2198;-493;1
2198;-536;1
2198;-531;1
2198;-489;1
2198;-500;1
2198;-496;1
2198;-505;1
2198;-542;1
2198;-563;1
2198;-547;1
2198;-513;1
2198;-468;1
2198;-514;1
2198;-538;1
2198;-546;1
2198;-511;1
2198;-498;1
2198;-461;1
2198;-457;1
2198;-463;1
2198;-541;1
2198;-540;1
2198;-509;1
2198;-510;1
2198;-491;1
2198;-497;1
2198;-524;1
2198;-511;1
2198;-537;1
2198;-540;1
2198;-479;1
2198;-487;1
2198;-528;1
2198;-529;1
2198;-528;1
2198;-520;1
2198;-497;1
2198;-489;1
2198;-496;1
2198;-503;1
2198;-568;1
2198;-528;1
2198;-503;1
2198;-487;1
2198;-499;1
2198;-492;1
2198;-541;1
2198;-543;1
2198;-549;1
2198;-503;1
2198;-473;1
2198;-471;1
2198;-515;1
2198;-506;1
2253;-520;1
2253;-520;1
2253;-522;1
2253;-484;1
2253;-487;1
2253;-558;1
2253;-560;1
2253;-527;1
2253;-520;1
2253;-496;1
2253;-514;1
2253;-527;1
2253;-552;1
2253;-568;1
2253;-558;1
2253;-477;1
2253;-480;1
2253;-527;1
2253;-525;1
2253;-524;1
2253;-496;1
2253;-477;1
2253;-461;1
2253;-454;1
2253;-470;1
2253;-506;1
2253;-509;1
2253;-473;1
2253;-488;1
2253;-480;1
2253;-497;1
2253;-538;1
2253;-581;1
2253;-577;1
2253;-546;1
2253;-478;1
2253;-503;1
2253;-524;1
2253;-534;1
2253;-502;1
2253;-502;1
2253;-462;1
2253;-458;1
2253;-462;1
2253;-535;1
2253;-554;1
2253;-540;1
2253;-549;1
2253;-531;1
2253;-534;1
2253;-564;1
2253;-552;1
2253;-563;1
2253;-508;1
2325;-454;1
2325;-426;1
2325;-481;1
2325;-488;1
2325;-515;1
2325;-534;1
2325;-499;1
2325;-504;1
2325;-503;1
2325;-498;1
2325;-567;1
2325;-553;1
2325;-529;1
2325;-507;1
2325;-507;1
2325;-483;1
2325;-511;1
2325;-519;1
2325;-534;1
2325;-479;1
2325;-461;1
2325;-472;1
2325;-516;1
2325;-515;1
2325;-534;1
2325;-533;1
2325;-521;1
2325;-484;1
2325;-490;1
2325;-524;1
2325;-559;1
2325;-510;1
2325;-508;1
2325;-482;1
2325;-483;1
2325;-483;1
2325;-520;1
2325;-509;1
2325;-532;1
2325;-447;1
2325;-451;1
2325;-482;1
2325;-534;1
2325;-541;1
2325;-564;1
2325;-533;1
2325;-536;1
2325;-534;1
2325;-568;1
2325;-599;1
2325;-610;1
2325;-568;1
2325;-524;1
2325;-496;1
2325;-486;1
2325;-493;1
2325;-516;1
2325;-509;1
2325;-472;1
2325;-456;1
2325;-481;1
2325;-520;1
2325;-558;1
2325;-545;1
2325;-540;1
2325;-531;1
2325;-501;1
2325;-518;1
2325;-600;1
2325;-610;1
2325;-572;1
2325;-543;1
2376;-507;1
2376;-506;1
2376;-529;1
2376;-528;1
2376;-557;1
2376;-531;1
2376;-492;1
2376;-467;1
2376;-528;1
2376;-521;1
2376;-519;1
2376;-524;1
2376;-482;1
2376;-478;1
2376;-472;1
2376;-469;1
2376;-537;1
2376;-518;1
2376;-514;1
2376;-483;1
2376;-501;1
2376;-490;1
2376;-534;1
2376;-529;1
2376;-546;1
2376;-511;1
2376;-485;1
2376;-491;1
2376;-525;1
2376;-540;1
2376;-525;1
2376;-509;1
2376;-504;1
2376;-450;1
2376;-435;1
2376;-458;1
2376;-508;1
2376;-463;1
2376;-481;1
2376;-461;1
2376;-471;1
2376;-514;1
2376;-543;1
2376;-581;1
2376;-608;1
2376;-537;1
2376;-546;1
2376;-541;1
2432;-550;1
2432;-541;1
2432;-548;1
2432;-504;1
2432;-494;1
2432;-477;1
2432;-455;1
2432;-495;1
2432;-495;1
2432;-456;1
2432;-473;1
2432;-493;1
2432;-527;1
2432;-574;1
2432;-645;1
2432;-686;1
2432;-676;1
2432;-652;1
2432;-677;1
2432;-717;1
2432;-766;1
2432;-749;1
2432;-753;1
2432;-746;1
2432;-708;1
2432;-603;1
2432;-553;1
2432;-596;1
2432;-559;1
2432;-511;1
2432;-443;1
2432;-392;1
2432;-379;1
2432;-461;1
2432;-401;1
2432;-333;1
2432;-223;1
2432;-84;1
2432;-191;1
2432;-202;1
2432;-233;1
2432;-274;1
2432;-280;1
2432;-303;1
2432;-335;1
2432;-349;1
2432;-435;1
2432;-461;1
2432;-412;1
2432;-484;1
2432;-455;1
2432;-437;1
2432;-481;1
2432;-438;1
2432;-552;1
2432;-515;1
2432;-498;1
2432;-485;1
2432;-515;1
2432;-541;1
2484;-539;1
2484;-538;1
2484;-529;1
2484;-496;1
2484;-505;1
2484;-610;1
2484;-588;1
2484;-545;1
2484;-522;1
2484;-432;1
2484;-525;1
2484;-520;1
2484;-550;1
2484;-568;1
2484;-603;1
2484;-542;1
2484;-540;1
2484;-602;1
2484;-619;1
2484;-620;1
2484;-611;1
2484;-632;1
2484;-571;1
2484;-522;1
2484;-541;1
2484;-503;1
2484;-591;1
2484;-520;1
2484;-507;1
2484;-486;1
2484;-471;1
2484;-464;1
2484;-478;1
2484;-467;1
2484;-454;1
2484;-449;1
2484;-478;1
2484;-633;1
2484;-605;1
2484;-630;1
2484;-649;1
2484;-559;1
2537;-603;1
2537;-579;1
2537;-593;1
2537;-591;1
2537;-571;1
2537;-517;1
2537;-511;1
2537;-484;1
2537;-492;1
2537;-499;1
2537;-536;1
2537;-601;1
2537;-518;1
2537;-470;1
2537;-503;1
2537;-438;1
2537;-526;1
2537;-517;1
2537;-514;1
2537;-483;1
2537;-604;1
2537;-590;1
2537;-646;1
2537;-649;1
2537;-633;1
2537;-595;1
2537;-597;1
2537;-570;1
2537;-594;1
2537;-618;1
2537;-598;1
2537;-565;1
2537;-517;1
2537;-499;1
2537;-534;1
2537;-560;1
2537;-541;1
2537;-543;1
2537;-494;1
2537;-486;1
2537;-473;1
2537;-530;1
2537;-565;1
2537;-541;1
2537;-535;1
2537;-512;1
2537;-538;1
2537;-548;1
2537;-578;1
2537;-596;1
2537;-625;1
2537;-553;1
2537;-548;1
2537;-556;1
2588;-559;1
2588;-547;1
2588;-541;1
2588;-500;1
2588;-495;1
2588;-485;1
2588;-472;1
2588;-540;1
2588;-570;1
2588;-528;1
2588;-531;1
2588;-519;1
2588;-534;1
2588;-567;1
2588;-582;1
2588;-579;1
2588;-562;1
2588;-540;1
2588;-524;1
2588;-561;1
2588;-588;1
2588;-555;1
2588;-543;1
2588;-513;1
2588;-497;1
2588;-460;1
2588;-525;1
2588;-551;1
2588;-541;1
2588;-526;1
2588;-537;1
2588;-544;1
2588;-586;1
2588;-605;1
2588;-636;1
2588;-618;1
2588;-566;1
2588;-524;1
2588;-570;1
2588;-566;1
2588;-586;1
2588;-566;1
2588;-550;1
2588;-531;1
2588;-523;1
2588;-500;1
2588;-563;1
2588;-551;1
2675;-536;1
2675;-504;1
2675;-524;1
2675;-493;1
2675;-533;1
2675;-538;1
2675;-569;1
2675;-536;1
2675;-515;1
2675;-501;1
2675;-550;1
2675;-552;1
2675;-574;1
2675;-577;1
2675;-581;1
2675;-542;1
2675;-531;1
2675;-575;1
2675;-625;1
2675;-593;1
2675;-582;1
2675;-560;1
2675;-554;1
2675;-567;1
2675;-589;1
2675;-599;1
2675;-613;1
2675;-540;1
2675;-527;1
2675;-547;1
2675;-575;1
2675;-591;1
2675;-612;1
2675;-577;1
2675;-585;1
2675;-550;1
2675;-560;1
2675;-600;1
2675;-620;1
2675;-564;1
2675;-562;1
2675;-547;1
2675;-538;1
2675;-549;1
2675;-562;1
2675;-549;1
2675;-557;1
2675;-506;1
2675;-537;1
2675;-586;1
2675;-617;1
2675;-590;1
2675;-613;1
2675;-584;1
2675;-582;1
2675;-548;1
2675;-593;1
2675;-626;1
2675;-617;1
2675;-594;1
2675;-563;1
2675;-559;1
2675;-551;1
2675;-574;1
2675;-562;1
2675;-581;1
2675;-531;1
2675;-517;1
2675;-567;1
2675;-577;1
2675;-622;1
2675;-638;1
2675;-657;1
2675;-647;1
2675;-640;1
2675;-607;1
2675;-660;1
2675;-674;1
2675;-604;1
2675;-584;1
2675;-598;1
2675;-577;1
2675;-603;1
2675;-631;1
2675;-616;1
2675;-599;1
2675;-537;1
2675;-497;1
2675;-525;1
2675;-543;1
2729;-509;1
2729;-510;1
2729;-491;1
2729;-454;1
2729;-451;1
2729;-486;1
2729;-508;1
2729;-507;1
2729;-459;1
2729;-466;1
2729;-459;1
2729;-471;1
2729;-487;1
2729;-498;1
2729;-538;1
2729;-480;1
2729;-448;1
2729;-486;1
2729;-486;1
2729;-468;1
2729;-483;1
2729;-447;1
2729;-441;1
2729;-419;1
2729;-384;1
2729;-439;1
2729;-476;1
2729;-421;1
2729;-429;1
2729;-416;1
2729;-422;1
2729;-454;1
2729;-504;1
2729;-515;1
2729;-518;1
2729;-478;1
2729;-451;1
2729;-483;1
2729;-519;1
2729;-503;1
2729;-536;1
2729;-498;1
2729;-481;1
2729;-436;1
2729;-469;1
2729;-479;1
2729;-468;1
2729;-452;1
2785;-415;1
2785;-414;1
2785;-399;1
2785;-448;1
2785;-493;1
2785;-554;1
2785;-524;1
2785;-510;1
2785;-543;1
2785;-584;1
2785;-584;1
2785;-583;1
2785;-549;1
2785;-508;1
2785;-497;1
2785;-463;1
2785;-542;1
2785;-535;1
2785;-504;1
2785;-474;1
2785;-493;1
2785;-489;1
2785;-538;1
2785;-526;1
2785;-544;1
2785;-539;1
2785;-502;1
2785;-469;1
2785;-515;1
2785;-548;1
2785;-520;1
2785;-539;1
2785;-535;1
2785;-511;1
2785;-517;1
2785;-516;1
2785;-573;1
2785;-539;1
2785;-525;1
2785;-489;1
2785;-504;1
2785;-495;1
2785;-544;1
2785;-548;1
2785;-587;1
2785;-509;1
2785;-489;1
2785;-499;1
2785;-531;1
2785;-534;1
2785;-534;1
2785;-515;1
2785;-510;1
2785;-484;1
2785;-475;1
2785;-525;1
2785;-557;1
2785;-498;1
2785;-489;1
2785;-466;1
2837;-470;1
2837;-461;1
2837;-490;1
2837;-487;1
2837;-499;1
2837;-467;1
2837;-446;1
2837;-498;1
2837;-536;1
2837;-526;1
2837;-561;1
2837;-517;1
2837;-495;1
2837;-479;1
2837;-507;1
2837;-547;1
2837;-570;1
2837;-527;1
2837;-527;1
2837;-536;1
2837;-542;1
2837;-532;1
2837;-551;1
2837;-571;1
2837;-505;1
2837;-470;1
2837;-460;1
2837;-473;1
2837;-457;1
2837;-469;1
2837;-464;1
2837;-454;1
2837;-468;1
2837;-462;1
2837;-550;1
2837;-585;1
2837;-587;1
2837;-581;1
2837;-587;1
2837;-549;1
2837;-557;1
2837;-550;1
2837;-568;1
2837;-561;1
2837;-514;1
2837;-477;1
2837;-536;1
2837;-537;1
2890;-536;1
2890;-524;1
2890;-518;1
2890;-484;1
2890;-480;1
2890;-517;1
2890;-553;1
2890;-564;1
2890;-548;1
2890;-509;1
2890;-519;1
2890;-496;1
2890;-543;1
2890;-538;1
2890;-564;1
2890;-513;1
2890;-497;1
2890;-508;1
2890;-555;1
2890;-551;1
2890;-563;1
2890;-530;1
2890;-521;1
2890;-490;1
2890;-474;1
2890;-522;1
2890;-559;1
2890;-519;1
2890;-517;1
2890;-502;1
2890;-510;1
2890;-524;1
2890;-562;1
2890;-553;1
2890;-554;1
2890;-461;1
2890;-420;1
2890;-444;1
2890;-478;1
2890;-462;1
2890;-500;1
2890;-477;1
2890;-488;1
2890;-467;1
2890;-505;1
2890;-548;1
2890;-587;1
2890;-533;1
2890;-522;1
2890;-527;1
2890;-533;1
2890;-547;1
2890;-583;1
2890;-613;1
2940;-558;1
2940;-521;1
2940;-549;1
2940;-541;1
2940;-553;1
2940;-537;1
2940;-502;1
2940;-501;1
2940;-470;1
2940;-460;1
2940;-530;1
2940;-574;1
2940;-558;1
2940;-531;1
2940;-539;1
2940;-520;1
2940;-528;1
2940;-544;1
2940;-531;1
2940;-535;1
2940;-492;1
2940;-445;1
2940;-509;1
2940;-506;1
2940;-523;1
2940;-527;1
2940;-541;1
2940;-519;1
2940;-516;1
2940;-549;1
2940;-582;1
2940;-586;1
2940;-557;1
2940;-523;1
2940;-527;1
2940;-494;1
2940;-526;1
2940;-553;1
2940;-567;1
2940;-508;1
2940;-466;1
2940;-463;1
2940;-506;1
2940;-524;1
2940;-535;1
2940;-516;1
2940;-509;1
2940;-505;1
3017;-474;1
3017;-527;1
3017;-575;1
3017;-519;1
3017;-513;1
3017;-517;1
3017;-506;1
3017;-523;1
3017;-509;1
3017;-499;1
3017;-482;1
3017;-424;1
3017;-401;1
3017;-460;1
3017;-516;1
3017;-519;1
3017;-580;1
3017;-571;1
3017;-570;1
3017;-529;1
3017;-531;1
3017;-535;1
3017;-555;1
3017;-511;1
3017;-506;1
3017;-526;1
3017;-543;1
3017;-547;1
3017;-591;1
3017;-598;1
3017;-595;1
3017;-533;1
3017;-550;1
3017;-556;1
3017;-572;1
3017;-537;1
3017;-553;1
3017;-504;1
3017;-498;1
3017;-468;1
3017;-524;1
3017;-574;1
3017;-533;1
3017;-524;1
3017;-495;1
3017;-510;1
3017;-509;1
3017;-523;1
3017;-528;1
3017;-532;1
3017;-482;1
3017;-439;1
3017;-499;1
3017;-513;1
3017;-526;1
3017;-538;1
3017;-543;1
3017;-508;1
3017;-515;1
3017;-504;1
3017;-562;1
3017;-545;1
3017;-513;1
3017;-461;1
3017;-465;1
3017;-474;1
3017;-483;1
3017;-519;1
3017;-561;1
3017;-524;1
3017;-485;1
3017;-515;1
3017;-538;1
3017;-568;1
3017;-571;1
3017;-533;1
3017;-504;1
3017;-499;1
3068;-470;1
3068;-519;1
3068;-556;1
3068;-507;1
3068;-505;1
3068;-516;1
3068;-473;1
3068;-494;1
3068;-534;1
3068;-546;1
3068;-572;1
3068;-526;1
3068;-499;1
3068;-548;1
3068;-563;1
3068;-554;1
3068;-556;1
3068;-511;1
3068;-472;1
3068;-440;1
3068;-453;1
3068;-497;1
3068;-540;1
3068;-497;1
3068;-506;1
3068;-517;1
3068;-524;1
3068;-529;1
3068;-567;1
3068;-585;1
3068;-543;1
3068;-507;1
3068;-521;1
3068;-550;1
3068;-570;1
3068;-569;1
3068;-556;1
3068;-539;1
3068;-530;1
3068;-486;1
3068;-535;1
3068;-585;1
3068;-530;1
3068;-512;1
3068;-520;1
3068;-500;1
3068;-507;1
3068;-496;1
3124;-516;1
3124;-530;1
3124;-490;1
3124;-439;1
3124;-491;1
3124;-520;1
3124;-521;1
3124;-544;1
3124;-532;1
3124;-504;1
3124;-493;1
3124;-496;1
3124;-534;1
3124;-545;1
3124;-513;1
3124;-476;1
3124;-506;1
3124;-472;1
3124;-494;1
3124;-525;1
3124;-549;1
3124;-503;1
3124;-478;1
3124;-452;1
3124;-502;1
3124;-508;1
3124;-525;1
3124;-509;1
3124;-517;1
3124;-492;1
3124;-503;1
3124;-533;1
3124;-613;1
3124;-569;1
3124;-547;1
3124;-531;1
3124;-488;1
3124;-503;1
3124;-540;1
3124;-550;1
3124;-590;1
3124;-524;1
3124;-510;1
3124;-544;1
3124;-573;1
3124;-549;1
3124;-554;1
3124;-527;1
3124;-505;1
3124;-485;1
3124;-485;1
3124;-528;1
3124;-547;1
3124;-507;1
3175;-459;1
3175;-461;1
3175;-477;1
3175;-484;1
3175;-520;1
3175;-529;1
3175;-548;1
3175;-467;1
3175;-480;1
3175;-505;1
3175;-538;1
3175;-554;1
3175;-537;1
3175;-523;1
3175;-531;1
3175;-501;1
3175;-565;1
3175;-598;1
3175;-587;1
3175;-562;1
3175;-574;1
3175;-548;1
3175;-578;1
3175;-582;1
3175;-611;1
3175;-580;1
3175;-530;1
3175;-466;1
3175;-500;1
3175;-526;1
3175;-511;1
3175;-531;1
3175;-526;1
3175;-514;1
3175;-510;1
3175;-504;1
3175;-550;1
3175;-559;1
3175;-536;1
3175;-499;1
3175;-499;1
3175;-495;1
3175;-505;1
3175;-526;1
3175;-560;1
3175;-528;1
3175;-496;1
3175;-466;1
3230;-526;1
3230;-530;1
3230;-556;1
3230;-555;1
3230;-542;1
3230;-523;1
3230;-488;1
3230;-521;1
3230;-559;1
3230;-508;1
3230;-477;1
3230;-472;1
3230;-446;1
3230;-462;1
3230;-512;1
3230;-533;1
3230;-579;1
3230;-533;1
3230;-511;1
3230;-540;1
3230;-561;1
3230;-533;1
3230;-552;1
3230;-517;1
3230;-485;1
3230;-467;1
3230;-475;1
3230;-527;1
3230;-556;1
3230;-533;1
3230;-512;1
3230;-528;1
3230;-555;1
3230;-573;1
3230;-612;1
3230;-647;1
3230;-622;1
3230;-562;1
3230;-571;1
3230;-591;1
3230;-635;1
3230;-625;1
3230;-574;1
3230;-536;1
3230;-519;1
3230;-483;1
3230;-532;1
3230;-567;1
3230;-564;1
3230;-533;1
3230;-524;1
3230;-498;1
3230;-526;1
3230;-523;1
3283;-562;1
3283;-562;1
3283;-535;1
3283;-455;1
3283;-500;1
3283;-513;1
3283;-539;1
3283;-513;1
3283;-521;1
3283;-472;1
3283;-474;1
3283;-450;1
3283;-517;1
3283;-542;1
3283;-505;1
3283;-485;1
3283;-482;1
3283;-488;1
3283;-495;1
3283;-531;1
3283;-585;1
3283;-576;1
3283;-545;1
3283;-518;1
3283;-553;1
3283;-567;1
3283;-573;1
3283;-550;1
3283;-538;1
3283;-500;1
3283;-483;1
3283;-511;1
3283;-579;1
3283;-554;1
3283;-538;1
3283;-534;1
3283;-505;1
3283;-504;1
3283;-535;1
3283;-541;1
3283;-562;1
3283;-486;1
3283;-441;1
3283;-467;1
3283;-499;1
3283;-499;1
3283;-529;1
3283;-522;1
3364;-524;1
3364;-524;1
3364;-524;1
3364;-524;1
3364;-524;1
3364;-524;1
3364;-524;1
3364;-524;1
3364;-524;1
3364;-524;1
3364;-524;1
3364;-524;1
3364;-524;1
3364;-519;1
3364;-494;1
3364;-522;1
3364;-533;1
3364;-553;1
3364;-548;1
3364;-512;1
3364;-532;1
3364;-548;1
3364;-592;1
3364;-569;1
3364;-565;1
3364;-549;1
3364;-553;1
3364;-537;1
3364;-605;1
3364;-663;1
3364;-678;1
3364;-637;1
3364;-654;1
3364;-653;1
3364;-678;1
3364;-673;1
3364;-708;1
3364;-742;1
3364;-703;1
3364;-609;1
3364;-608;1
3364;-574;1
3364;-617;1
3364;-602;1
3364;-596;1
3364;-544;1
3364;-507;1
3364;-460;1
3364;-506;1
3364;-518;1
3364;-434;1
3364;-315;1
3364;-262;1
3364;-225;1
3364;-237;1
3364;-250;1
3364;-316;1
3364;-332;1
3364;-317;1
3364;-310;1
3364;-389;1
3364;-445;1
3364;-470;1
3364;-467;1
3364;-486;1
3364;-484;1
3364;-495;1
3364;-533;1
3364;-607;1
3364;-587;1
3364;-549;1
3364;-547;1
3364;-543;1
3364;-564;1
3364;-587;1
3364;-568;1
3364;-597;1
3364;-544;1
3364;-522;1
3364;-528;1
3364;-564;1
3364;-548;1
3364;-569;1
3364;-553;1
3364;-559;1
3364;-544;1
3364;-539;1
3364;-578;1
3364;-617;1
3364;-549;1
3418;-528;1
3418;-514;1
3418;-496;1
3418;-483;1
3418;-527;1
3418;-546;1
3418;-563;1
3418;-507;1
3418;-517;1
3418;-541;1
3418;-561;1
3418;-559;1
3418;-572;1
3418;-554;1
3418;-565;1
3418;-526;1
3418;-555;1
3418;-576;1
3418;-572;1
3418;-512;1
3418;-491;1
3418;-452;1
3418;-456;1
3418;-455;1
3418;-499;1
3418;-513;1
3418;-506;1
3418;-462;1
3418;-527;1
3418;-566;1
3418;-631;1
3418;-636;1
3418;-667;1
3418;-614;1
3418;-580;1
3418;-517;1
3418;-563;1
3418;-576;1
3418;-566;1
3418;-530;1
3418;-543;1
3418;-544;1
3418;-536;1
3418;-566;1
3418;-583;1
3418;-551;1
3418;-507;1
3418;-464;1
3418;-509;1
3418;-534;1
3418;-555;1
3418;-537;1
3418;-539;1
3418;-507;1
3471;-496;1
3471;-510;1
3471;-578;1
3471;-555;1
3471;-509;1
3471;-505;1
3471;-491;1
3471;-491;1
3471;-525;1
3471;-538;1
3471;-583;1
3471;-542;1
3471;-527;1
3471;-517;1
3471;-565;1
3471;-567;1
3471;-591;1
3471;-572;1
3471;-575;1
3471;-545;1
3471;-539;1
3471;-557;1
3471;-605;1
3471;-551;1
3471;-549;1
3471;-527;1
3471;-540;1
3471;-541;1
3471;-568;1
3471;-592;1
3471;-577;1
3471;-522;1
3471;-501;1
3471;-511;1
3471;-542;1
3471;-556;1
3471;-537;1
3471;-529;1
3471;-502;1
3471;-508;1
3471;-523;1
3471;-574;1
3471;-592;1
3471;-554;1
3471;-557;1
3471;-533;1
3471;-539;1
3471;-561;1
3471;-567;1
3471;-583;1
3471;-571;1
3471;-502;1
3471;-521;1
3471;-521;1
3523;-539;1
3523;-538;1
3523;-547;1
3523;-511;1
3523;-498;1
3523;-501;1
3523;-511;1
3523;-558;1
3523;-556;1
3523;-521;1
3523;-537;1
3523;-555;1
3523;-532;1
3523;-553;1
3523;-589;1
3523;-587;1
3523;-560;1
3523;-518;1
3523;-564;1
3523;-578;1
3523;-604;1
3523;-574;1
3523;-572;1
3523;-533;1
3523;-524;1
3523;-518;1
3523;-572;1
3523;-590;1
3523;-541;1
3523;-520;1
3523;-519;1
3523;-542;1
3523;-573;1
3523;-586;1
3523;-610;1
3523;-643;1
3523;-627;1
3523;-649;1
3523;-684;1
3523;-671;1
3523;-658;1
3523;-597;1
3523;-586;1
3523;-540;1
3523;-537;1
3523;-516;1
3523;-560;1
3523;-525;1
3580;-534;1
3580;-509;1
3580;-521;1
3580;-501;1
3580;-545;1
3580;-543;1
3580;-569;1
3580;-568;1
3580;-581;1
3580;-609;1
3580;-663;1
3580;-696;1
3580;-591;1
3580;-591;1
3580;-591;1
3580;-591;1
3580;-591;1
3580;-591;1
3580;-591;1
3580;-591;1
3580;-591;1
3580;-591;1
3580;-591;1
3580;-591;1
3580;-591;1
3580;-566;1
3580;-537;1
3580;-535;1
3580;-549;1
3580;-590;1
3580;-603;1
3580;-609;1
3580;-642;1
3580;-611;1
3580;-631;1
3580;-653;1
3580;-636;1
3580;-600;1
3580;-555;1
3580;-484;1
3580;-465;1
3580;-446;1
3580;-481;1
3580;-521;1
3580;-555;1
3580;-564;1
3580;-612;1
3580;-612;1
3580;-642;1
3580;-674;1
3580;-715;1
3580;-697;1
3580;-691;1
3580;-635;1
3580;-643;1
3580;-644;1
3580;-648;1
3580;-625;1
3580;-615;1
3580;-568;1
3630;-539;1
3630;-514;1
3630;-541;1
3630;-535;1
3630;-526;1
3630;-517;1
3630;-523;1
3630;-544;1
3630;-598;1
3630;-607;1
3630;-652;1
3630;-636;1
3630;-601;1
3630;-588;1
3630;-597;1
3630;-574;1
3630;-570;1
3630;-533;1
3630;-439;1
3630;-439;1
3630;-439;1
3630;-439;1
3630;-439;1
3630;-439;1
3630;-439;1
3630;-439;1
3630;-439;1
3630;-439;1
3630;-439;1
3630;-439;1
3630;-439;1
3630;-409;1
3630;-424;1
3630;-423;1
3630;-456;1
3630;-459;1
3630;-516;1
3630;-506;1
3630;-528;1
3630;-558;1
3630;-587;1
3630;-586;1
3630;-542;1
3630;-511;1
3630;-482;1
3630;-434;1
3630;-426;1
3630;-450;1
3630;-427;1
3630;-417;1
3630;-402;1
3630;-428;1
3630;-429;1
3630;-451;1
3630;-467;1
3630;-487;1
3630;-516;1
3630;-474;1
3630;-485;1
3630;-516;1
3711;-502;1
3711;-507;1
3711;-519;1
3711;-475;1
3711;-485;1
3711;-462;1
3711;-457;1
3711;-486;1
3711;-498;1
3711;-448;1
3711;-464;1
3711;-450;1
3711;-464;1
3711;-475;1
3711;-504;1
3711;-510;1
3711;-518;1
3711;-520;1
3711;-517;1
3711;-542;1
3711;-550;1
3711;-532;1
3711;-541;1
3711;-506;1
3711;-512;1
3711;-481;1
3711;-504;1
3711;-498;1
3711;-488;1
3711;-493;1
3711;-510;1
3711;-495;1
3711;-522;1
3711;-520;1
3711;-535;1
3711;-536;1
3711;-508;1
3711;-503;1
3711;-539;1
3711;-531;1
3711;-518;1
3711;-527;1
3711;-497;1
3711;-470;1
3711;-468;1
3711;-438;1
3711;-477;1
3711;-459;1
3711;-466;1
3711;-458;1
3711;-464;1
3711;-424;1
3711;-453;1
3711;-481;1
3711;-483;1
3711;-484;1
3711;-484;1
3711;-495;1
3711;-545;1
3711;-543;1
3711;-577;1
3711;-557;1
3711;-551;1
3711;-495;1
3711;-475;1
3711;-460;1
3711;-479;1
3711;-468;1
3711;-479;1
3711;-458;1
3711;-472;1
3711;-510;1
3711;-509;1
3711;-553;1
3711;-542;1
3711;-521;1
3711;-520;1
3711;-542;1
3764;-539;1
3764;-537;1
3764;-545;1
3764;-514;1
3764;-488;1
3764;-472;1
3764;-457;1
3764;-491;1
3764;-502;1
3764;-479;1
3764;-502;1
3764;-490;1
3764;-509;1
3764;-499;1
3764;-521;1
3764;-521;1
3764;-545;1
3764;-511;1
3764;-556;1
3764;-551;1
3764;-549;1
3764;-519;1
3764;-533;1
3764;-506;1
3764;-519;1
3764;-476;1
3764;-498;1
3764;-490;1
3764;-510;1
3764;-497;1
3764;-531;1
3764;-519;1
3764;-550;1
3764;-546;1
3764;-564;1
3764;-586;1
3764;-535;1
3764;-539;1
3764;-531;1
3764;-538;1
3764;-531;1
3764;-518;1
3764;-496;1
3764;-465;1
3764;-456;1
3764;-429;1
3764;-439;1
3764;-448;1
3820;-430;1
3820;-448;1
3820;-497;1
3820;-514;1
3820;-575;1
3820;-578;1
3820;-599;1
3820;-583;1
3820;-564;1
3820;-544;1
3820;-563;1
3820;-549;1
3820;-556;1
3820;-518;1
3820;-518;1
3820;-473;1
3820;-468;1
3820;-446;1
3820;-471;1
3820;-418;1
3820;-422;1
3820;-407;1
3820;-440;1
3820;-447;1
3820;-480;1
3820;-513;1
3820;-556;1
3820;-549;1
3820;-589;1
3820;-605;1
3820;-627;1
3820;-622;1
3820;-598;1
3820;-540;1
3820;-526;1
3820;-480;1
3820;-448;1
3820;-473;1
3820;-469;1
3820;-463;1
3820;-481;1
3820;-475;1
3820;-502;1
3820;-527;1
3820;-571;1
3820;-576;1
3820;-587;1
3820;-538;1
3820;-555;1
3820;-542;1
3820;-562;1
3820;-532;1
3820;-555;1
3820;-537;1
3820;-550;1
3820;-525;1
3820;-549;1
3820;-547;1
3820;-547;1
3820;-514;1
3872;-519;1
3872;-494;1
3872;-513;1
3872;-513;1
3872;-532;1
3872;-541;1
3872;-497;1
3872;-496;1
3872;-519;1
3872;-511;1
3872;-510;1
3872;-518;1
3872;-485;1
3872;-498;1
3872;-500;1
3872;-482;1
3872;-518;1
3872;-525;1
3872;-506;1
3872;-503;1
3872;-501;1
3872;-476;1
3872;-495;1
3872;-516;1
3872;-521;1
3872;-523;1
3872;-501;1
3872;-490;1
3872;-504;1
3872;-522;1
3872;-508;1
3872;-505;1
3872;-508;1
3872;-481;1
3872;-478;1
3872;-513;1
3872;-537;1
3872;-536;1
3872;-520;1
3872;-496;1
3872;-508;1
3872;-500;1
3872;-518;1
3872;-483;1
3872;-482;1
3872;-422;1
3872;-428;1
3872;-444;1
3924;-469;1
3924;-489;1
3924;-523;1
3924;-522;1
3924;-549;1
3924;-578;1
3924;-575;1
3924;-610;1
3924;-582;1
3924;-558;1
3924;-526;1
3924;-527;1
3924;-515;1
3924;-523;1
3924;-560;1
3924;-546;1
3924;-546;1
3924;-524;1
3924;-529;1
3924;-547;1
3924;-565;1
3924;-534;1
3924;-552;1
3924;-522;1
3924;-526;1
3924;-494;1
3924;-519;1
3924;-518;1
3924;-514;1
3924;-468;1
3924;-478;1
3924;-481;1
3924;-505;1
3924;-511;1
3924;-548;1
3924;-538;1
3924;-549;1
3924;-523;1
3924;-563;1
3924;-552;1
3924;-568;1
3924;-544;1
3924;-539;1
3924;-523;1
3924;-518;1
3924;-488;1
3924;-532;1
3924;-515;1
3924;-509;1
3924;-482;1
3924;-499;1
3924;-479;1
3924;-504;1
3924;-527;1
3978;-523;1
3978;-504;1
3978;-475;1
3978;-453;1
3978;-484;1
3978;-482;1
3978;-498;1
3978;-499;1
3978;-521;1
3978;-504;1
3978;-507;1
3978;-532;1
3978;-560;1
3978;-564;1
3978;-551;1
3978;-489;1
3978;-494;1
3978;-466;1
3978;-499;1
3978;-496;1
3978;-530;1
3978;-504;1
3978;-511;1
3978;-548;1
3978;-524;1
3978;-535;1
3978;-524;1
3978;-481;1
3978;-483;1
3978;-483;1
3978;-467;1
3978;-526;1
3978;-561;1
3978;-529;1
3978;-560;1
3978;-558;1
3978;-573;1
3978;-573;1
3978;-580;1
3978;-559;1
3978;-559;1
3978;-527;1
3978;-517;1
3978;-524;1
3978;-541;1
3978;-518;1
3978;-527;1
3978;-520;1
4049;-485;1
4049;-474;1
4049;-487;1
4049;-481;1
4049;-487;1
4049;-464;1
4049;-460;1
4049;-469;1
4049;-502;1
4049;-497;1
4049;-533;1
4049;-530;1
4049;-538;1
4049;-524;1
4049;-572;1
4049;-566;1
4049;-581;1
4049;-541;1
4049;-528;1
4049;-481;1
4049;-493;1
4049;-458;1
4049;-496;1
4049;-528;1
4049;-499;1
4049;-522;1
4049;-546;1
4049;-534;1
4049;-567;1
4049;-539;1
4049;-541;1
4049;-519;1
4049;-503;1
4049;-481;1
4049;-497;1
4049;-493;1
4049;-480;1
4049;-477;1
4049;-487;1
4049;-469;1
4049;-491;1
4049;-517;1
4049;-527;1
4049;-518;1
4049;-538;1
4049;-531;1
4049;-557;1
4049;-542;1
4049;-569;1
4049;-555;1
4049;-572;1
4049;-535;1
4049;-525;1
4049;-551;1
4049;-519;1
4049;-520;1
4049;-526;1
4049;-491;1
4049;-495;1
4049;-512;1
4049;-490;1
4049;-518;1
4049;-538;1
4049;-500;1
4049;-503;1
4049;-483;1
4099;-494;1
4099;-525;1
4099;-559;1
4099;-574;1
4099;-596;1
4099;-574;1
4099;-582;1
4099;-570;1
4099;-591;1
4099;-562;1
4099;-562;1
4099;-511;1
4099;-480;1
4099;-458;1
4099;-474;1
4099;-498;1
4099;-517;1
4099;-531;1
4099;-533;1
4099;-557;1
4099;-581;1
4099;-583;1
4099;-594;1
4099;-571;1
4099;-563;1
4099;-526;1
4099;-557;1
4099;-541;1
4099;-543;1
4099;-559;1
4099;-534;1
4099;-543;1
4099;-546;1
4099;-511;1
4099;-528;1
4099;-544;1
4099;-508;1
4099;-523;1
4099;-536;1
4099;-514;1
4099;-538;1
4099;-531;1
4099;-545;1
4099;-545;1
4099;-535;1
4099;-512;1
4099;-535;1
4099;-554;1
4099;-531;1
4099;-538;1
4099;-514;1
4099;-494;1
4099;-501;1
4099;-519;1
4150;-536;1
4150;-537;1
4150;-541;1
4150;-491;1
4150;-487;1
4150;-473;1
4150;-495;1
4150;-487;1
4150;-507;1
4150;-478;1
4150;-476;1
4150;-487;1
4150;-527;1
4150;-548;1
4150;-567;1
4150;-539;1
4150;-546;1
4150;-519;1
4150;-521;1
4150;-508;1
4150;-524;1
4150;-496;1
4150;-521;1
4150;-514;1
4150;-546;1
4150;-549;1
4150;-589;1
4150;-566;1
4150;-581;1
4150;-518;1
4150;-512;1
4150;-507;1
4150;-521;1
4150;-474;1
4150;-477;1
4150;-482;1
4150;-474;1
4150;-485;1
4150;-504;1
4150;-573;1
4150;-596;1
4150;-596;1
4150;-597;1
4150;-585;1
4150;-589;1
4150;-579;1
4150;-617;1
4150;-610;1
4201;-585;1
4201;-536;1
4201;-568;1
4201;-567;1
4201;-597;1
4201;-575;1
4201;-563;1
4201;-551;1
4201;-547;1
4201;-498;1
4201;-519;1
4201;-518;1
4201;-518;1
4201;-518;1
4201;-542;1
4201;-529;1
4201;-564;1
4201;-566;1
4201;-591;1
4201;-595;1
4201;-564;1
4201;-527;1
4201;-557;1
4201;-536;1
4201;-539;1
4201;-509;1
4201;-502;1
4201;-466;1
4201;-458;1
4201;-469;1
4201;-485;1
4201;-496;1
4201;-479;1
4201;-484;1
4201;-480;1
4201;-498;1
4201;-508;1
4201;-526;1
4201;-567;1
4201;-535;1
4201;-506;1
4201;-504;1
4201;-524;1
4201;-543;1
4201;-561;1
4201;-519;1
4201;-492;1
4201;-486;1
4201;-455;1
4201;-491;1
4201;-521;1
4201;-484;1
4201;-496;1
4201;-468;1
4257;-490;1
4257;-515;1
4257;-536;1
4257;-522;1
4257;-543;1
4257;-519;1
4257;-485;1
4257;-505;1
4257;-528;1
4257;-512;1
4257;-530;1
4257;-502;1
4257;-516;1
4257;-498;1
4257;-525;1
4257;-542;1
4257;-548;1
4257;-538;1
4257;-523;1
4257;-510;1
4257;-527;1
4257;-529;1
4257;-533;1
4257;-535;1
4257;-503;1
4257;-464;1
4257;-488;1
4257;-485;1
4257;-515;1
4257;-510;1
4257;-527;1
4257;-517;1
4257;-537;1
4257;-529;1
4257;-576;1
4257;-576;1
4257;-570;1
4257;-561;1
4257;-577;1
4257;-579;1
4257;-632;1
4257;-656;1
4257;-706;1
4257;-737;1
4257;-722;1
4257;-702;1
4257;-727;1
4257;-698;1
4308;-677;1
4308;-649;1
4308;-629;1
4308;-592;1
4308;-580;1
4308;-525;1
4308;-535;1
4308;-492;1
4308;-486;1
4308;-438;1
4308;-421;1
4308;-341;1
4308;-291;1
4308;-243;1
4308;-271;1
4308;-257;1
4308;-236;1
4308;-284;1
4308;-315;1
4308;-340;1
4308;-318;1
4308;-341;1
4308;-343;1
4308;-318;1
4308;-325;1
4308;-281;1
4308;-416;1
4308;-400;1
4308;-418;1
4308;-436;1
4308;-495;1
4308;-495;1
4308;-495;1
4308;-495;1
4308;-495;1
4308;-495;1
4308;-495;1
4308;-495;1
4308;-495;1
4308;-495;1
4308;-495;1
4308;-495;1
4308;-495;1
4308;-601;1
4308;-583;1
4308;-583;1
4308;-619;1
4308;-535;1
4308;-618;1
4308;-603;1
4308;-601;1
4308;-566;1
4308;-547;1
4308;-524;1
4308;-484;1
4308;-505;1
4308;-495;1
4308;-535;1
4308;-541;1
4308;-635;1
4390;-582;1
4390;-565;1
4390;-569;1
4390;-473;1
4390;-533;1
4390;-527;1
4390;-505;1
4390;-490;1
4390;-498;1
4390;-475;1
4390;-507;1
4390;-526;1
4390;-528;1
4390;-523;1
4390;-534;1
4390;-581;1
4390;-528;1
4390;-505;1
4390;-480;1
4390;-426;1
4390;-492;1
4390;-469;1
4390;-508;1
4390;-538;1
4390;-522;1
4390;-550;1
4390;-564;1
4390;-537;1
4390;-512;1
4390;-490;1
4390;-493;1
4390;-576;1
4390;-520;1
4390;-491;1
4390;-520;1
4390;-449;1
4390;-560;1
4390;-565;1
4390;-575;1
4390;-555;1
4390;-549;1
4390;-513;1
4390;-531;1
4390;-540;1
4390;-553;1
4390;-528;1
4390;-590;1
4390;-555;1
4390;-517;1
4390;-528;1
4390;-562;1
4390;-523;1
4390;-516;1
4390;-518;1
4390;-512;1
4390;-550;1
4390;-577;1
4390;-546;1
4390;-544;1
4390;-506;1
4390;-469;1
4390;-498;1
4390;-519;1
4390;-508;1
4390;-548;1
4390;-538;1
4390;-557;1
4390;-562;1
4390;-559;1
4390;-547;1
4390;-557;1
4390;-550;1
4390;-515;1
4390;-528;1
4390;-533;1
4390;-510;1
4390;-518;1
4390;-540;1
4441;-525;1
4441;-520;1
4441;-552;1
4441;-551;1
4441;-576;1
4441;-527;1
4441;-520;1
4441;-519;1
4441;-517;1
4441;-480;1
4441;-508;1
4441;-521;1
4441;-514;1
4441;-511;1
4441;-526;1
4441;-514;1
4441;-529;1
4441;-552;1
4441;-528;1
4441;-528;1
4441;-518;1
4441;-478;1
4441;-523;1
4441;-519;1
4441;-540;1
4441;-525;1
4441;-530;1
4441;-503;1
4441;-511;1
4441;-485;1
4441;-538;1
4441;-533;1
4441;-539;1
4441;-513;1
4441;-536;1
4441;-509;1
4441;-505;1
4441;-474;1
4441;-483;1
4441;-459;1
4441;-448;1
4441;-463;1
4441;-528;1
4441;-547;1
4441;-605;1
4441;-604;1
4441;-613;1
4441;-574;1
4441;-536;1
4441;-533;1
4441;-565;1
4441;-526;1
4441;-527;1
4441;-520;1
4494;-533;1
4494;-530;1
4494;-554;1
4494;-551;1
4494;-557;1
4494;-545;1
4494;-506;1
4494;-536;1
4494;-559;1
4494;-539;1
4494;-549;1
4494;-510;1
4494;-526;1
4494;-512;1
4494;-535;1
4494;-553;1
4494;-581;1
4494;-580;1
4494;-561;1
4494;-582;1
4494;-597;1
4494;-593;1
4494;-624;1
4494;-593;1
4494;-592;1
4494;-559;1
4494;-570;1
4494;-560;1
4494;-576;1
4494;-546;1
4494;-560;1
4494;-531;1
4494;-548;1
4494;-516;1
4494;-537;1
4494;-590;1
4494;-579;1
4494;-568;1
4494;-570;1
4494;-545;1
4494;-560;1
4494;-587;1
4494;-589;1
4494;-595;1
4494;-583;1
4494;-541;1
4494;-561;1
4494;-582;1
4545;-567;1
4545;-566;1
4545;-560;1
4545;-504;1
4545;-489;1
4545;-459;1
4545;-503;1
4545;-535;1
4545;-544;1
4545;-543;1
4545;-591;1
4545;-599;1
4545;-655;1
4545;-665;1
4545;-698;1
4545;-676;1
4545;-634;1
4545;-632;1
4545;-621;1
4545;-632;1
4545;-630;1
4545;-598;1
4545;-572;1
4545;-541;1
4545;-540;1
4545;-527;1
4545;-572;1
4545;-540;1
4545;-537;1
4545;-553;1
4545;-556;1
4545;-559;1
4545;-591;1
4545;-581;1
4545;-586;1
4545;-547;1
4545;-497;1
4545;-510;1
4545;-532;1
4545;-518;1
4545;-542;1
4545;-514;1
4545;-516;1
4545;-491;1
4545;-502;1
4545;-512;1
4545;-523;1
4545;-510;1
4601;-473;1
4601;-476;1
4601;-475;1
4601;-459;1
4601;-488;1
4601;-472;1
4601;-474;1
4601;-435;1
4601;-451;1
4601;-442;1
4601;-487;1
4601;-468;1
4601;-474;1
4601;-467;1
4601;-461;1
4601;-420;1
4601;-431;1
4601;-479;1
4601;-459;1
4601;-469;1
4601;-443;1
4601;-460;1
4601;-476;1
4601;-502;1
4601;-490;1
4601;-478;1
4601;-453;1
4601;-395;1
4601;-398;1
4601;-412;1
4601;-418;1
4601;-437;1
4601;-449;1
4601;-444;1
4601;-480;1
4601;-472;1
4601;-524;1
4601;-549;1
4601;-537;1
4601;-506;1
4601;-520;1
4601;-501;1
4601;-520;1
4601;-519;1
4601;-531;1
4601;-513;1
4601;-474;1
4601;-471;1
4601;-474;1
4601;-511;1
4601;-535;1
4601;-543;1
4601;-568;1
4601;-545;1
4601;-535;1
4601;-507;1
4601;-542;1
4601;-509;1
4601;-519;1
4601;-494;1
4651;-509;1
4651;-510;1
4651;-532;1
4651;-528;1
4651;-555;1
4651;-525;1
4651;-492;1
4651;-497;1
4651;-513;1
4651;-505;1
4651;-525;1
4651;-502;1
4651;-492;1
4651;-468;1
4651;-467;1
4651;-467;1
4651;-517;1
4651;-479;1
4651;-482;1
4651;-493;1
4651;-510;1
4651;-507;1
4651;-543;1
4651;-538;1
4651;-540;1
4651;-496;1
4651;-504;1
4651;-493;1
4651;-516;1
4651;-492;1
4651;-512;1
4651;-478;1
4651;-495;1
4651;-484;1
4651;-509;1
4651;-524;1
4651;-522;1
4651;-508;1
4651;-503;1
4651;-480;1
4651;-505;1
4651;-496;1
4651;-512;1
4651;-494;1
4651;-497;1
4651;-464;1
4651;-486;1
4651;-523;1
4722;-525;1
4722;-521;1
4722;-513;1
4722;-469;1
4722;-476;1
4722;-461;1
4722;-492;1
4722;-503;1
4722;-501;1
4722;-477;1
4722;-488;1
4722;-491;1
4722;-495;1
4722;-535;1
4722;-584;1
4722;-587;1
4722;-578;1
4722;-543;1
4722;-568;1
4722;-583;1
4722;-601;1
4722;-587;1
4722;-588;1
4722;-577;1
4722;-525;1
4722;-532;1
4722;-581;1
4722;-555;1
4722;-549;1
4722;-514;1
4722;-522;1
4722;-523;1
4722;-543;1
4722;-531;1
4722;-553;1
4722;-523;1
4722;-509;1
4722;-491;1
4722;-530;1
4722;-514;1
4722;-533;1
4722;-526;1
4722;-521;1
4722;-519;1
4722;-523;1
4722;-524;1
4722;-560;1
4722;-548;1
4722;-516;1
4722;-512;1
4722;-521;1
4722;-507;1
4722;-521;1
4722;-542;1
4722;-526;1
4722;-502;1
4722;-502;1
4722;-503;1
4722;-521;1
4722;-535;1
4722;-513;1
4722;-512;1
4722;-501;1
4722;-477;1
4722;-499;1
4722;-505;1
4776;-517;1
4776;-485;1
4776;-498;1
4776;-480;1
4776;-500;1
4776;-499;1
4776;-529;1
4776;-546;1
4776;-550;1
4776;-505;1
4776;-526;1
4776;-539;1
4776;-530;1
4776;-541;1
4776;-512;1
4776;-490;1
4776;-479;1
4776;-480;1
4776;-487;1
4776;-517;1
4776;-532;1
4776;-529;1
4776;-549;1
4776;-560;1
4776;-569;1
4776;-594;1
4776;-628;1
4776;-604;1
4776;-583;1
4776;-574;1
4776;-567;1
4776;-579;1
4776;-593;1
4776;-571;1
4776;-563;1
4776;-518;1
4776;-509;1
4776;-502;1
4776;-527;1
4776;-494;1
4776;-496;1
4776;-472;1
4776;-512;1
4776;-511;1
4776;-554;1
4776;-563;1
4776;-577;1
4776;-532;1
4776;-510;1
4776;-486;1
4776;-514;1
4776;-504;1
4776;-539;1
4776;-529;1
4827;-550;1
4827;-547;1
4827;-553;1
4827;-549;1
4827;-570;1
4827;-542;1
4827;-493;1
4827;-476;1
4827;-491;1
4827;-475;1
4827;-490;1
4827;-483;1
4827;-501;1
4827;-468;1
4827;-463;1
4827;-468;1
4827;-497;1
4827;-520;1
4827;-501;1
4827;-506;1
4827;-521;1
4827;-503;1
4827;-518;1
4827;-572;1
4827;-554;1
4827;-554;1
4827;-556;1
4827;-525;1
4827;-518;1
4827;-533;1
4827;-518;1
4827;-532;1
4827;-525;1
4827;-469;1
4827;-496;1
4827;-503;1
4827;-535;1
4827;-534;1
4827;-555;1
4827;-521;1
4827;-534;1
4827;-536;1
4827;-516;1
4827;-550;1
4827;-513;1
4827;-485;1
4827;-482;1
4827;-459;1
4879;-475;1
4879;-504;1
4879;-542;1
4879;-558;1
4879;-574;1
4879;-558;1
4879;-597;1
4879;-605;1
4879;-596;1
4879;-552;1
4879;-537;1
4879;-537;1
4879;-495;1
4879;-499;1
4879;-541;1
4879;-518;1
4879;-511;1
4879;-530;1
4879;-523;1
4879;-538;1
4879;-563;1
4879;-552;1
4879;-583;1
4879;-549;1
4879;-533;1
4879;-517;1
4879;-548;1
4879;-530;1
4879;-543;1
4879;-520;1
4879;-520;1
4879;-496;1
4879;-503;1
4879;-498;1
4879;-541;1
4879;-506;1
4879;-515;1
4879;-497;1
4879;-531;1
4879;-535;1
4879;-549;1
4879;-555;1
4879;-542;1
4879;-499;1
4879;-494;1
4879;-506;1
4879;-538;1
4879;-556;1
5978;979841;0
5978;-478;0
5978;-428;0
5978;-421;0
5978;-465;0
5978;-474;0
5978;-506;0
5978;-539;0
5978;-505;0
5978;-503;0
5978;-472;0
5978;-484;0
5978;-496;0
5978;-535;0
5978;-478;0
5978;-460;0
5978;-471;0
5978;-492;0
5978;-501;0
5978;-552;0
5978;-555;0
5978;-569;0
5978;-544;0
5978;-536;0
5978;-549;0
5978;-573;0
5978;-548;0
5978;-561;0
5978;-532;0
5978;-475;0
5978;-475;0
5978;-475;0
5978;-475;0
5978;-475;0
5978;-475;0
5978;-475;0
5978;-475;0
5978;-475;0
5978;-475;0
5978;-475;0
5978;-475;0
5978;-475;0
5978;-466;0
5978;-469;0
5978;-457;0
5978;-491;0
5978;-490;0
5978;-491;0
5978;-490;0
5978;-538;0
5978;-553;0
5978;-582;0
5978;-565;0
5978;-557;0
5978;-530;0
5978;-528;0
5978;-504;0
5978;-538;0
5978;-533;0
5978;-519;0
5978;-514;0
5978;-524;0
5978;-504;0
5978;-520;0
5978;-540;0
5978;-528;0
5978;-532;0
5978;-455;0
5978;-440;0
5978;-451;0
5978;-456;0
5978;-440;0
5978;-449;0
5978;-462;0
5978;-451;0
5978;-492;0
5978;-513;0
5978;-580;0
5978;-581;0
5978;-595;0
5978;-569;0
5978;-541;0
5978;-519;0
5978;-492;0
5978;-503;0
5978;-528;0
5978;-499;0
5978;-481;0
5978;-512;0
5978;-512;0
5978;-526;0
5978;-540;0
5978;-502;0
5978;-490;0
5978;-463;0
5978;-464;0
5978;-503;0
5978;-548;0
5978;-511;0
5978;-506;0
5978;-488;0
5978;-496;0
5978;-510;0
5978;-529;0
5978;-519;0
5978;-533;0
5978;-512;0
5978;-523;0
5978;-531;0
5978;-561;0
5978;-558;0
5978;-562;0
5978;-550;0
5978;-530;0
5978;-517;0
5978;-533;0
5978;-547;0
5978;-551;0
5978;-512;0
5978;-513;0
5978;-499;0
5978;-507;0
5978;-498;0
5978;-516;0
5978;-552;0
5978;-530;0
5978;-509;0
5978;-541;0
5978;-540;0
5978;-559;0
5978;-538;0
5978;-550;0
5978;-511;0
5978;-525;0
5978;-494;0
5978;-518;0
5978;-545;0
5978;-503;0
5978;-485;0
5978;-470;0
5978;-438;0
5978;-464;0
5978;-462;0
5978;-488;0
5978;-517;0
5978;-502;0
5978;-482;0
5978;-521;0
5978;-555;0
5978;-543;0
5978;-524;0
5978;-479;0
5978;-484;0
5978;-496;0
5978;-501;0
5978;-553;0
5978;-567;0
5978;-577;0
5978;-543;0
5978;-540;0
5978;-522;0
5978;-538;0
5978;-527;0
5978;-541;0
5978;-495;0
5978;-478;0
5978;-477;0
5978;-512;0
5978;-504;0
5978;-529;0
5978;-506;0
5978;-512;0
5978;-495;0
5978;-518;0
5978;-531;0
5978;-589;0
5978;-560;0
5978;-562;0
5978;-525;0
5978;-518;0
5978;-499;0
5978;-520;0
5978;-523;0
5978;-549;0
5978;-501;0
5978;-515;0
5978;-554;0
5978;-590;0
5978;-572;0
5978;-583;0
5978;-572;0
5978;-542;0
5978;-516;0
5978;-521;0
5978;-544;0
5978;-541;0
5978;-527;0
5978;-522;0
5978;-521;0
5978;-540;0
5978;-529;0
5978;-547;0
5978;-530;0
5978;-509;0
5978;-451;0
5978;-458;0
5978;-438;0
5978;-471;0
5978;-474;0
5978;-499;0
5978;-514;0
5978;-548;0
5978;-537;0
5978;-580;0
5978;-578;0
5978;-568;0
5978;-518;0
5978;-531;0
5978;-514;0
5978;-535;0
5978;-557;0
5978;-559;0
5978;-577;0
5978;-564;0
5978;-499;0
5978;-511;0
5978;-523;0
5978;-492;0
5978;-500;0
5978;-497;0
5978;-471;0
5978;-482;0
5978;-503;0
5978;-543;0
5978;-558;0
5978;-548;0
5978;-561;0
5978;-568;0
5978;-557;0
5978;-562;0
5978;-543;0
5978;-548;0
5978;-515;0
5978;-494;0
5978;-516;0
5978;-519;0
5978;-541;0
5978;-574;0
5978;-569;0
5978;-568;0
5978;-543;0
5978;-540;0
5978;-536;0
5978;-578;0
5978;-528;0
5978;-498;0
5978;-445;0
5978;-459;0
5978;-454;0
5978;-503;0
5978;-532;0
5978;-581;0
5978;-566;0
5978;-590;0
5978;-609;0
5978;-640;0
5978;-603;0
5978;-584;0
5978;-541;0
5978;-545;0
5978;-515;0
5978;-531;0
5978;-529;0
5978;-549;0
5978;-517;0
5978;-520;0
5978;-528;0
5978;-528;0
5978;-535;0
5978;-561;0
5978;-566;0
5978;-575;0
5978;-542;0
5978;-553;0
5978;-548;0
5978;-559;0
5978;-530;0
5978;-517;0
5978;-508;0
5978;-503;0
5978;-466;0
5978;-484;0
5978;-516;0
5978;-488;0
5978;-502;0
5978;-527;0
5978;-533;0
5978;-570;0
5978;-600;0
5978;-587;0
5978;-603;0
5978;-595;0
5978;-550;0
5978;-575;0
5978;-590;0
5978;-571;0
5978;-576;0
5978;-568;0
5978;-524;0
5978;-516;0
5978;-508;0
5978;-526;0
5978;-502;0
5978;-509;0
5978;-501;0
5978;-527;0
5978;-516;0
5978;-530;0
5978;-547;0
5978;-586;0
5978;-568;0
5978;-549;0
5978;-565;0
5978;-579;0
5978;-593;0
5978;-624;0
5978;-600;0
5978;-596;0
5978;-552;0
5978;-534;0
5978;-531;0
5978;-556;0
5978;-519;0
5978;-530;0
5978;-509;0
5978;-520;0
5978;-497;0
5978;-517;0
5978;-509;0
5978;-542;0
5978;-491;0
5978;-469;0
5978;-490;0
5978;-518;0
5978;-502;0
5978;-532;0
5978;-550;0
5978;-533;0
5978;-538;0
5978;-533;0
5978;-538;0
5978;-570;0
5978;-546;0
5978;-568;0
5978;-546;0
5978;-546;0
5978;-527;0
5978;-552;0
5978;-541;0
5978;-550;0
5978;-526;0
5978;-524;0
5978;-547;0
5978;-552;0
5978;-566;0
5978;-556;0
5978;-539;0
5978;-540;0
5978;-501;0
5978;-525;0
5978;-552;0
5978;-532;0
5978;-525;0
5978;-543;0
5978;-519;0
5978;-546;0
5978;-573;0
5978;-575;0
5978;-605;0
5978;-587;0
5978;-543;0
5978;-569;0
5978;-581;0
5978;-542;0
5978;-528;0
5978;-519;0
5978;-487;0
5978;-494;0
5978;-473;0
5978;-517;0
5978;-540;0
5978;-538;0
5978;-521;0
5978;-542;0
5978;-549;0
5978;-579;0
5978;-569;0
5978;-595;0
5978;-568;0
5978;-532;0
5978;-531;0
6727;-500;0
6727;-501;0
6727;-512;0
6727;-556;0
6727;-552;0
6727;-573;0
6727;-529;0
6727;-535;0
6727;-530;0
6727;-550;0
6727;-528;0
6727;-553;0
6727;-541;0
6727;-535;0
6727;-528;0
6727;-558;0
6727;-548;0
6727;-566;0
6727;-561;0
6727;-579;0
6727;-553;0
6727;-550;0
6727;-553;0
6727;-585;0
6727;-582;0
6727;-558;0
6727;-546;0
6727;-558;0
6727;-538;0
6727;-552;0
6727;-566;0
6727;-562;0
6727;-546;0
6727;-528;0
6727;-532;0
6727;-554;0
6727;-570;0
6727;-553;0
6727;-548;0
6727;-554;0
6727;-520;0
6727;-520;0
6727;-559;0
6727;-551;0
6727;-541;0
6727;-543;0
6727;-532;0
6727;-548;0
6727;-564;0
6727;-551;0
6727;-560;0
6727;-560;0
6727;-498;0
6727;-507;0
6727;-538;0
6727;-532;0
6727;-539;0
6727;-555;0
6727;-534;0
6727;-553;0
6727;-538;0
6727;-567;0
6727;-570;0
6727;-538;0
6727;-509;0
6727;-493;0
6727;-491;0
6727;-489;0
6727;-509;0
6727;-562;0
6727;-567;0
6727;-589;0
6727;-607;0
6727;-616;0
6727;-639;0
6727;-651;0
6727;-611;0
6727;-583;0
6727;-566;0
6727;-525;0
6727;-535;0
6727;-566;0
6727;-559;0
6727;-549;0
6727;-559;0
6727;-544;0
6727;-573;0
6727;-606;0
6727;-603;0
6727;-608;0
6727;-577;0
6727;-547;0
6727;-553;0
6727;-580;0
6727;-585;0
6727;-607;0
6727;-633;0
6727;-604;0
6727;-614;0
6727;-624;0
6727;-618;0
6727;-659;0
6727;-640;0
6727;-639;0
6727;-607;0
6727;-594;0
6727;-570;0
6727;-581;0
6727;-587;0
6727;-581;0
6727;-549;0
6727;-534;0
6727;-530;0
6727;-561;0
6727;-554;0
6727;-559;0
6727;-556;0
6727;-571;0
6727;-540;0
6727;-551;0
6727;-553;0
6727;-563;0
6727;-555;0
6727;-558;0
6727;-539;0
6727;-558;0
6727;-541;0
6727;-553;0
6727;-529;0
6727;-540;0
6727;-485;0
6727;-482;0
6727;-505;0
6727;-489;0
6727;-500;0
6727;-502;0
6727;-463;0
6727;-474;0
6727;-445;0
6727;-466;0
6727;-479;0
6727;-495;0
6727;-457;0
6727;-467;0
6727;-476;0
6727;-475;0
6727;-473;0
6727;-499;0
6727;-479;0
6727;-482;0
6727;-451;0
6727;-462;0
6727;-466;0
6727;-474;0
6727;-461;0
6727;-462;0
6727;-436;0
6727;-435;0
6727;-439;0
6727;-478;0
6727;-475;0
6727;-494;0
6727;-470;0
6727;-498;0
6727;-468;0
6727;-496;0
6727;-481;0
6727;-489;0
6727;-453;0
6727;-412;0
6727;-377;0
6727;-407;0
6727;-415;0
6727;-444;0
6727;-438;0
6727;-468;0
6727;-481;0
6727;-506;0
6727;-485;0
6727;-497;0
6727;-481;0
6727;-433;0
6727;-407;0
6727;-390;0
6727;-412;0
6727;-450;0
6727;-489;0
6727;-495;0
6727;-506;0
6727;-494;0
6727;-518;0
6727;-535;0
6727;-565;0
6727;-529;0
6727;-491;0
6727;-462;0
6727;-433;0
6727;-469;0
6727;-482;0
6727;-514;0
6727;-520;0
6727;-551;0
6727;-554;0
6727;-564;0
6727;-568;0
6727;-595;0
6727;-616;0
6727;-623;0
6727;-573;0
6727;-597;0
6727;-596;0
6727;-619;0
6727;-588;0
6727;-593;0
6727;-553;0
6727;-544;0
6727;-490;0
6727;-491;0
6727;-522;0
6727;-531;0
6727;-493;0
6727;-486;0
6727;-497;0
6727;-504;0
6727;-504;0
6727;-504;0
6727;-504;0
6727;-504;0
6727;-504;0
6727;-504;0
6727;-504;0
6727;-504;0
6727;-504;0
6727;-504;0
6727;-504;0
6727;-504;0
6727;-528;0
6727;-523;0
6727;-525;0
6727;-524;0
6727;-504;0
6727;-515;0
6727;-510;0
6727;-529;0
6727;-524;0
6727;-512;0
6727;-512;0
6727;-490;0
6727;-484;0
6727;-489;0
6727;-479;0
6727;-501;0
6727;-523;0
6727;-482;0
6727;-478;0
6727;-518;0
6727;-516;0
6727;-543;0
6727;-538;0
6727;-561;0
6727;-541;0
6727;-549;0
6727;-528;0
6727;-573;0
6727;-554;0
6727;-546;0
6727;-547;0
6727;-558;0
6727;-545;0
6727;-576;0
6727;-557;0
6727;-575;0
6727;-525;0
6727;-508;0
6727;-485;0
6727;-507;0
6727;-533;0
6727;-530;0
6727;-528;0
6727;-543;0
6727;-513;0
6727;-522;0
6727;-565;0
6727;-580;0
6727;-565;0
6727;-550;0
6727;-518;0
6727;-541;0
6727;-532;0
6727;-538;0
6727;-548;0
6727;-568;0
6727;-527;0
6727;-548;0
6727;-549;0
6727;-578;0
6727;-564;0
6727;-582;0
6727;-545;0
6727;-536;0
6727;-529;0
6727;-499;0
6727;-535;0
6727;-542;0
6727;-510;0
6727;-516;0
6727;-498;0
6727;-522;0
6727;-541;0
6727;-569;0
6727;-566;0
6727;-571;0
6727;-518;0
6727;-539;0
6727;-531;0
6727;-554;0
6727;-528;0
6727;-528;0
6727;-526;0
6727;-527;0
6727;-517;0
6727;-557;0
6727;-577;0
6727;-561;0
6727;-568;0
6727;-555;0
6727;-561;0
6727;-578;0
6727;-561;0
6727;-571;0
6727;-581;0
6727;-528;0
6727;-522;0
6727;-550;0
6727;-539;0
6727;-541;0
6727;-558;0
6727;-532;0
6727;-525;0
6727;-525;0
6727;-514;0
6727;-559;0
6727;-569;0
8090;981929;0
8090;-534;0
8090;-490;0
8090;-521;0
8090;-527;0
8090;-548;0
8090;-557;0
8090;-558;0
8090;-513;0
8090;-506;0
8090;-505;0
8090;-496;0
8090;-541;0
8090;-538;0
8090;-504;0
8090;-516;0
8090;-506;0
8090;-544;0
8090;-540;0
8090;-566;0
8090;-553;0
8090;-535;0
8090;-493;0
8090;-527;0
8090;-509;0
8090;-507;0
8090;-486;0
8090;-495;0
8090;-479;0
8090;-489;0
8090;-466;0
8090;-518;0
8090;-518;0
8090;-504;0
8090;-502;0
8090;-500;0
8090;-511;0
8090;-517;0
8090;-531;0
8090;-529;0
8090;-535;0
8090;-495;0
8090;-496;0
8090;-534;0
8090;-508;0
8090;-499;0
8090;-500;0
8090;-463;0
8090;-455;0
8090;-441;0
8090;-427;0
8090;-486;0
8090;-465;0
8090;-487;0
8090;-479;0
8090;-508;0
8090;-495;0
8090;-528;0
8090;-524;0
8090;-548;0
8090;-514;0
8090;-506;0
8090;-523;0
8090;-556;0
8090;-546;0
8090;-589;0
8090;-579;0
8090;-602;0
8090;-579;0
8090;-583;0
8090;-572;0
8090;-558;0
8090;-528;0
8090;-532;0
8090;-510;0
8090;-522;0
8090;-531;0
8090;-531;0
8090;-561;0
8090;-548;0
8090;-510;0
8090;-528;0
8090;-556;0
8090;-550;0
8090;-541;0
8090;-536;0
8090;-506;0
8090;-513;0
8090;-523;0
8090;-507;0
8090;-539;0
8090;-539;0
8090;-510;0
8090;-529;0
8090;-519;0
8090;-546;0
8090;-563;0
8090;-590;0
8090;-577;0
8090;-566;0
8090;-507;0
8090;-531;0
8090;-507;0
8090;-527;0
8090;-517;0
8090;-520;0
8090;-519;0
8090;-498;0
8090;-502;0
8090;-539;0
8090;-534;0
8090;-525;0
8090;-512;0
8090;-479;0
8090;-485;0
8090;-490;0
8090;-499;0
8090;-526;0
8090;-546;0
8090;-519;0
8090;-522;0
8090;-541;0
8090;-497;0
8090;-482;0
8090;-457;0
8090;-471;0
8090;-462;0
8090;-493;0
8090;-498;0
8090;-557;0
8090;-555;0
8090;-571;0
8090;-546;0
8090;-561;0
8090;-551;0
8090;-575;0
8090;-554;0
8090;-555;0
8090;-530;0
8090;-515;0
8090;-517;0
8090;-553;0
8090;-538;0
8090;-544;0
8090;-527;0
8090;-515;0
8090;-483;0
8090;-480;0
8090;-530;0
8090;-516;0
8090;-492;0
8090;-504;0
8090;-487;0
8090;-509;0
8090;-534;0
8090;-566;0
8090;-563;0
8090;-576;0
8090;-533;0
8090;-530;0
8090;-555;0
8090;-565;0
8090;-558;0
8090;-563;0
8090;-535;0
8090;-544;0
8090;-529;0
8090;-551;0
8090;-559;0
8090;-550;0
8090;-525;0
8090;-542;0
8090;-529;0
8090;-537;0
8090;-521;0
8090;-527;0
8090;-508;0
8090;-505;0
8090;-459;0
8090;-500;0
8090;-498;0
8090;-534;0
8090;-531;0
8090;-565;0
8090;-564;0
8090;-578;0
8090;-573;0
8090;-604;0
8090;-587;0
8090;-579;0
8090;-567;0
8090;-542;0
8090;-536;0
8090;-548;0
8090;-533;0
8090;-558;0
8090;-524;0
8090;-496;0
8090;-477;0
8090;-518;0
8090;-511;0
8090;-522;0
8090;-531;0
8090;-510;0
8090;-509;0
8090;-513;0
8090;-506;0
8090;-550;0
8090;-545;0
8090;-512;0
8090;-503;0
8090;-506;0
8090;-484;0
8090;-515;0
8090;-500;0
8090;-532;0
8090;-496;0
8090;-494;0
8090;-495;0
8090;-523;0
8090;-511;0
8090;-545;0
8090;-524;0
8090;-535;0
8090;-495;0
8090;-492;0
8090;-522;0
8090;-505;0
8090;-498;0
8090;-501;0
8090;-471;0
8090;-482;0
8090;-476;0
8090;-508;0
8090;-509;0
8090;-530;0
8090;-477;0
8090;-472;0
8090;-481;0
8090;-461;0
8090;-466;0
8090;-459;0
8090;-463;0
8090;-461;0
8090;-482;0
8090;-513;0
8090;-577;0
8090;-598;0
8090;-570;0
8090;-589;0
8090;-580;0
8090;-595;0
8090;-589;0
8090;-611;0
8090;-583;0
8090;-558;0
8090;-539;0
8090;-522;0
8090;-524;0
8090;-535;0
8090;-510;0
8090;-513;0
8090;-491;0
8090;-502;0
8090;-511;0
8090;-572;0
8090;-593;0
8090;-596;0
8090;-599;0
8090;-560;0
8090;-545;0
8090;-563;0
8090;-558;0
8090;-580;0
8090;-591;0
8090;-537;0
8090;-544;0
8090;-572;0
8090;-564;0
8090;-578;0
8090;-587;0
8090;-555;0
8090;-553;0
8090;-521;0
8090;-540;0
8090;-558;0
8090;-542;0
8090;-516;0
8090;-490;0
8090;-485;0
8090;-467;0
8090;-508;0
8090;-511;0
8090;-535;0
8090;-529;0
8090;-524;0
8090;-531;0
8090;-571;0
8090;-552;0
8090;-568;0
8090;-546;0
8090;-552;0
8090;-517;0
8090;-517;0
8090;-549;0
8090;-548;0
8090;-534;0
8090;-536;0
8090;-516;0
8090;-513;0
8090;-529;0
8090;-519;0
8090;-538;0
8090;-552;0
8090;-496;0
8090;-502;0
8090;-537;0
8090;-522;0
8090;-529;0
8090;-536;0
8090;-509;0
8090;-504;0
8090;-457;0
8090;-462;0
8090;-459;0
8090;-444;0
8090;-424;0
8090;-441;0
8090;-474;0
8090;-494;0
8090;-525;0
8090;-580;0
8090;-601;0
8090;-630;0
8090;-632;0
8090;-637;0
8090;-647;0
8090;-651;0
8090;-605;0
8090;-577;0
8090;-554;0
8090;-503;0
8090;-509;0
8090;-553;0
8090;-564;0
8090;-548;0
8090;-547;0
8090;-545;0
8090;-565;0
8090;-604;0
8090;-616;0
8090;-654;0
8090;-619;0
8090;-589;0
8090;-565;0
8090;-590;0
8090;-559;0
8090;-553;0
8090;-518;0
8090;-512;0
8090;-501;0
8090;-503;0
8090;-476;0
8090;-517;0
8090;-532;0
8090;-503;0
8090;-509;0
8090;-520;0
8090;-542;0
8090;-553;0
8090;-559;0
8090;-542;0
8090;-515;0
8090;-508;0
8090;-495;0
8090;-522;0
8090;-528;0
8090;-548;0
8090;-528;0
8090;-536;0
8090;-511;0
8090;-517;0
8090;-549;0
8090;-590;0
8090;-590;0
8090;-590;0
8090;-590;0
8090;-590;0
8090;-590;0
8090;-590;0
8090;-590;0
8090;-590;0
8090;-590;0
8090;-590;0
8090;-590;0
8090;-590;0
8090;-577;0
8090;-584;0
8090;-515;0
8090;-512;0
8090;-510;0
8918;982739;0
8918;-521;0
8918;-511;0
8918;-523;0
8918;-472;0
8918;-476;0
8918;-501;0
8918;-525;0
8918;-499;0
8918;-516;0
8918;-485;0
8918;-495;0
8918;-467;0
8918;-485;0
8918;-483;0
8918;-489;0
8918;-486;0
8918;-458;0
8918;-471;0
8918;-480;0
8918;-470;0
8918;-492;0
8918;-504;0
8918;-506;0
8918;-454;0
8918;-479;0
8918;-471;0
8918;-492;0
8918;-506;0
8918;-506;0
8918;-504;0
8918;-498;0
8918;-469;0
8918;-522;0
8918;-544;0
8918;-537;0
8918;-509;0
8918;-509;0
8918;-490;0
8918;-499;0
8918;-470;0
8918;-483;0
8918;-462;0
8918;-437;0
8918;-410;0
8918;-461;0
8918;-478;0
8918;-519;0
8918;-527;0
8918;-546;0
8918;-509;0
8918;-505;0
8918;-486;0
8918;-538;0
8918;-517;0
8918;-530;0
8918;-507;0
8918;-532;0
8918;-522;0
8918;-556;0
8918;-549;0
8918;-575;0
8918;-526;0
8918;-495;0
8918;-490;0
8918;-525;0
8918;-534;0
8918;-547;0
8918;-517;0
8918;-527;0
8918;-510;0
8918;-511;0
8918;-547;0
8918;-587;0
8918;-546;0
8918;-554;0
8918;-537;0
8918;-537;0
8918;-558;0
8918;-576;0
8918;-548;0
8918;-559;0
8918;-508;0
8918;-497;0
8918;-513;0
8918;-544;0
8918;-530;0
8918;-543;0
8918;-511;0
8918;-516;0
8918;-490;0
8918;-504;0
8918;-509;0
8918;-535;0
8918;-498;0
8918;-508;0
8918;-513;0
8918;-534;0
8918;-535;0
8918;-550;0
8918;-561;0
8918;-534;0
8918;-511;0
8918;-524;0
8918;-499;0
8918;-519;0
8918;-535;0
8918;-512;0
8918;-524;0
8918;-510;0
8918;-491;0
8918;-524;0
8918;-550;0
8918;-532;0
8918;-504;0
8918;-503;0
8918;-477;0
8918;-503;0
8918;-496;0
8918;-511;0
8918;-516;0
8918;-504;0
8918;-478;0
8918;-511;0
8918;-511;0
8918;-505;0
8918;-501;0
8918;-495;0
8918;-457;0
8918;-477;0
8918;-465;0
8918;-527;0
8918;-540;0
8918;-546;0
8918;-526;0
8918;-553;0
8918;-537;0
8918;-566;0
8918;-544;0
8918;-556;0
8918;-505;0
8918;-471;0
8918;-494;0
8918;-489;0
8918;-511;0
8918;-524;0
8918;-506;0
8918;-518;0
8918;-501;0
8918;-529;0
8918;-543;0
8918;-603;0
8918;-587;0
8918;-597;0
8918;-583;0
8918;-580;0
8918;-574;0
8918;-592;0
8918;-573;0
8918;-583;0
8918;-530;0
8918;-512;0
8918;-529;0
8918;-542;0
8918;-515;0
8918;-533;0
8918;-507;0
8918;-497;0
8918;-495;0
8918;-507;0
8918;-520;0
8918;-536;0
8918;-540;0
8918;-508;0
8918;-519;0
8918;-520;0
8918;-504;0
8918;-512;0
8918;-529;0
8918;-508;0
8918;-473;0
8918;-474;0
8918;-460;0
8918;-471;0
8918;-481;0
8918;-458;0
8918;-467;0
8918;-484;0
8918;-465;0
8918;-515;0
8918;-572;0
8918;-542;0
8918;-538;0
8918;-532;0
8918;-539;0
8918;-545;0
8918;-523;0
8918;-510;0
8918;-488;0
8918;-452;0
8918;-413;0
8918;-457;0
8918;-461;0
8918;-476;0
8918;-508;0
8918;-543;0
8918;-538;0
8918;-560;0
8918;-584;0
8918;-593;0
8918;-584;0
8918;-567;0
8918;-528;0
8918;-560;0
8918;-541;0
8918;-564;0
8918;-570;0
8918;-584;0
8918;-557;0
8918;-542;0
8918;-527;0
8918;-557;0
8918;-531;0
8918;-532;0
8918;-502;0
8918;-510;0
8918;-484;0
8918;-494;0
8918;-522;0
8918;-574;0
8918;-541;0
8918;-541;0
8918;-547;0
8918;-540;0
8918;-530;0
8918;-551;0
8918;-531;0
8918;-543;0
8918;-498;0
8918;-483;0
8918;-487;0
8918;-500;0
8918;-489;0
8918;-516;0
8918;-511;0
8918;-528;0
8918;-514;0
8918;-526;0
8918;-538;0
8918;-563;0
8918;-531;0
8918;-524;0
8918;-493;0
8918;-498;0
8918;-486;0
8918;-507;0
8918;-534;0
8918;-520;0
8918;-494;0
8918;-505;0
8918;-507;0
8918;-539;0
8918;-531;0
8918;-543;0
8918;-525;0
8918;-529;0
8918;-512;0
8918;-550;0
8918;-557;0
8918;-561;0
8918;-560;0
8918;-567;0
8918;-542;0
8918;-552;0
8918;-570;0
8918;-571;0
8918;-573;0
8918;-536;0
8918;-522;0
8918;-544;0
8918;-557;0
8918;-555;0
8918;-556;0
8918;-557;0
8918;-526;0
8918;-517;0
8918;-511;0
8918;-515;0
8918;-525;0
8918;-518;0
8918;-486;0
8918;-505;0
8918;-485;0
8918;-519;0
8918;-508;0
8918;-534;0
8918;-509;0
8918;-495;0
8918;-477;0
8918;-494;0
8918;-493;0
8918;-511;0
8918;-492;0
8918;-503;0
8918;-505;0
8918;-502;0
8918;-541;0
8918;-605;0
8918;-577;0
8918;-571;0
8918;-511;0
8918;-489;0
8918;-440;0
8918;-443;0
8918;-424;0
8918;-437;0
8918;-441;0
8918;-426;0
8918;-492;0
8918;-539;0
8918;-573;0
8918;-620;0
8918;-631;0
8918;-640;0
8918;-610;0
8918;-600;0
8918;-595;0
8918;-594;0
8918;-533;0
8918;-511;0
8918;-515;0
8918;-521;0
8918;-521;0
8918;-543;0
8918;-572;0
8918;-550;0
8918;-533;0
8918;-552;0
8918;-565;0
8918;-575;0
8918;-592;0
8918;-556;0
8918;-541;0
8918;-528;0
8918;-501;0
8918;-531;0
8918;-545;0
8918;-546;0
8918;-536;0
8918;-546;0
8918;-520;0
8918;-526;0
8918;-549;0
8918;-541;0
8918;-557;0
8918;-544;0
8918;-494;0
8918;-528;0
8918;-518;0
8918;-522;0
8918;-499;0
8918;-488;0
8918;-435;0
8918;-430;0
8918;-400;0
8918;-438;0
8918;-455;0
8918;-457;0
8918;-457;0
8918;-495;0
8918;-520;0
8918;-524;0
8918;-556;0
8918;-585;0
8918;-570;0
8918;-546;0
8918;-537;0
8918;-574;0
8918;-564;0
8918;-570;0
8918;-520;0
8918;-483;0
8918;-478;0
8918;-444;0
8918;-473;0
8918;-537;0
8918;-532;0
8918;-566;0
8918;-573;0
8918;-612;0
8918;-642;0
8918;-671;0
8918;-658;0
8918;-655;0
8918;-587;0
8918;-562;0
8918;-548;0
8918;-574;0
8918;-549;0
8918;-570;0
8918;-555;0
9974;983789;0
9974;-513;0
9974;-490;0
9974;-506;0
9974;-499;0
9974;-524;0
9974;-514;0
9974;-538;0
9974;-490;0
9974;-493;0
9974;-492;0
9974;-496;0
9974;-485;0
9974;-502;0
9974;-470;0
9974;-478;0
9974;-495;0
9974;-470;0
9974;-518;0
9974;-519;0
9974;-498;0
9974;-488;0
9974;-499;0
9974;-502;0
9974;-506;0
9974;-527;0
9974;-513;0
9974;-517;0
9974;-469;0
9974;-473;0
9974;-478;0
9974;-486;0
9974;-447;0
9974;-465;0
9974;-454;0
9974;-462;0
9974;-458;0
9974;-494;0
9974;-520;0
9974;-532;0
9974;-507;0
9974;-532;0
9974;-522;0
9974;-541;0
9974;-502;0
9974;-519;0
9974;-512;0
9974;-494;0
9974;-490;0
9974;-543;0
9974;-553;0
9974;-583;0
9974;-589;0
9974;-610;0
9974;-590;0
9974;-598;0
9974;-579;0
9974;-638;0
9974;-615;0
9974;-582;0
9974;-560;0
9974;-561;0
9974;-532;0
9974;-536;0
9974;-547;0
9974;-534;0
9974;-513;0
9974;-488;0
9974;-469;0
9974;-502;0
9974;-493;0
9974;-511;0
9974;-503;0
9974;-508;0
9974;-486;0
9974;-489;0
9974;-526;0
9974;-540;0
9974;-536;0
9974;-530;0
9974;-512;0
9974;-514;0
9974;-525;0
9974;-509;0
9974;-517;0
9974;-538;0
9974;-492;0
9974;-488;0
9974;-479;0
9974;-500;0
9974;-477;0
9974;-502;0
9974;-485;0
9974;-490;0
9974;-451;0
9974;-466;0
9974;-493;0
9974;-527;0
9974;-487;0
9974;-499;0
9974;-500;0
9974;-502;0
9974;-500;0
9974;-494;0
9974;-507;0
9974;-494;0
9974;-458;0
9974;-458;0
9974;-467;0
9974;-454;0
9974;-413;0
9974;-411;0
9974;-439;0
9974;-444;0
9974;-473;0
9974;-531;0
9974;-572;0
9974;-582;0
9974;-610;0
9974;-623;0
9974;-642;0
9974;-646;0
9974;-608;0
9974;-608;0
9974;-597;0
9974;-577;0
9974;-557;0
9974;-590;0
9974;-584;0
9974;-604;0
9974;-579;0
9974;-565;0
9974;-553;0
9974;-550;0
9974;-519;0
9974;-553;0
9974;-573;0
9974;-528;0
9974;-532;0
9974;-516;0
9974;-526;0
9974;-523;0
9974;-531;0
9974;-528;0
9974;-528;0
9974;-504;0
9974;-495;0
9974;-522;0
9974;-523;0
9974;-531;0
9974;-525;0
9974;-528;0
9974;-503;0
9974;-516;0
9974;-513;0
9974;-544;0
9974;-524;0
9974;-517;0
9974;-490;0
9974;-503;0
9974;-489;0
9974;-516;0
9974;-505;0
9974;-535;0
9974;-487;0
9974;-478;0
9974;-507;0
9974;-501;0
9974;-513;0
9974;-530;0
9974;-507;0
9974;-516;0
9974;-486;0
9974;-501;0
9974;-503;0
9974;-524;0
9974;-470;0
9974;-460;0
9974;-415;0
9974;-429;0
9974;-410;0
9974;-444;0
9974;-448;0
9974;-456;0
9974;-443;0
9974;-472;0
9974;-496;0
9974;-519;0
9974;-504;0
9974;-525;0
9974;-533;0
9974;-518;0
9974;-507;0
9974;-553;0
9974;-594;0
9974;-622;0
9974;-590;0
9974;-576;0
9974;-566;0
9974;-568;0
9974;-544;0
9974;-552;0
9974;-531;0
9974;-526;0
9974;-503;0
9974;-546;0
9974;-558;0
9974;-590;0
9974;-596;0
9974;-602;0
9974;-598;0
9974;-607;0
9974;-582;0
9974;-615;0
9974;-594;0
9974;-582;0
9974;-554;0
9974;-570;0
9974;-548;0
9974;-582;0
9974;-566;0
9974;-590;0
9974;-561;0
9974;-530;0
9974;-505;0
9974;-529;0
9974;-532;0
9974;-525;0
9974;-531;0
9974;-507;0
9974;-510;0
9974;-498;0
9974;-518;0
9974;-532;0
9974;-522;0
9974;-516;0
9974;-492;0
9974;-494;0
9974;-518;0
9974;-509;0
9974;-517;0
9974;-529;0
9974;-479;0
9974;-467;0
9974;-502;0
9974;-496;0
9974;-513;0
9974;-532;0
9974;-505;0
9974;-509;0
9974;-491;0
9974;-501;0
9974;-513;0
9974;-533;0
9974;-493;0
9974;-490;0
9974;-495;0
9974;-444;0
9974;-447;0
9974;-447;0
9974;-427;0
9974;-437;0
9974;-402;0
9974;-414;0
9974;-450;0
9974;-511;0
9974;-518;0
9974;-571;0
9974;-609;0
9974;-593;0
9974;-568;0
9974;-583;0
9974;-566;0
9974;-535;0
9974;-511;0
9974;-478;0
9974;-482;0
9974;-499;0
9974;-504;0
9974;-552;0
9974;-577;0
9974;-560;0
9974;-554;0
9974;-596;0
9974;-590;0
9974;-610;0
9974;-599;0
9974;-612;0
9974;-615;0
9974;-618;0
9974;-606;0
9974;-670;0
9974;-661;0
9974;-653;0
9974;-622;0
9974;-627;0
9974;-575;0
9974;-599;0
9974;-597;0
9974;-623;0
9974;-636;0
9974;-642;0
9974;-625;0
9974;-663;0
9974;-672;0
9974;-688;0
9974;-698;0
9974;-629;0
9974;-583;0
9974;-504;0
9974;-470;0
9974;-473;0
9974;-435;0
9974;-389;0
9974;-314;0
9974;-283;0
9974;-257;0
9974;-279;0
9974;-290;0
9974;-323;0
9974;-257;0
9974;-210;0
9974;-280;0
9974;-327;0
9974;-325;0
9974;-354;0
9974;-352;0
9974;-377;0
9974;-385;0
9974;-426;0
9974;-473;0
9974;-536;0
9974;-611;0
9974;-547;0
9974;-505;0
9974;-519;0
9974;-473;0
9974;-579;0
9974;-567;0
9974;-577;0
9974;-525;0
9974;-533;0
9974;-549;0
9974;-565;0
9974;-527;0
9974;-528;0
9974;-517;0
9974;-477;0
9974;-539;0
9974;-500;0
9974;-511;0
9974;-513;0
9974;-443;0
9974;-520;0
9974;-533;0
9974;-540;0
9974;-562;0
9974;-559;0
9974;-570;0
9974;-550;0
9974;-522;0
9974;-549;0
9974;-529;0
9974;-542;0
9974;-603;0
9974;-539;0
9974;-510;0
9974;-508;0
9974;-425;0
9974;-545;0
9974;-547;0
9974;-539;0
9974;-517;0
9974;-527;0
9974;-505;0
9974;-532;0
9974;-524;0
9974;-559;0
9974;-551;0
9974;-529;0
9974;-562;0
9974;-548;0
9974;-522;0
9974;-531;0
9974;-436;0
9974;-515;0
9974;-483;0
9974;-495;0
9974;-487;0
9974;-553;0
9974;-528;0
9974;-533;0
9974;-510;0
9974;-529;0
9974;-522;0
9974;-520;0
9974;-617;0
9974;-562;0
9974;-544;0
9974;-504;0
9974;-466;0
10970;984743;0
10970;-552;0
10970;-538;0
10970;-523;0
10970;-524;0
10970;-498;0
10970;-508;0
10970;-528;0
10970;-524;0
10970;-551;0
10970;-505;0
10970;-472;0
10970;-466;0
10970;-474;0
10970;-457;0
10970;-479;0
10970;-497;0
10970;-484;0
10970;-518;0
10970;-508;0
10970;-550;0
10970;-589;0
10970;-555;0
10970;-525;0
10970;-491;0
10970;-488;0
10970;-478;0
10970;-474;0
10970;-488;0
10970;-486;0
10970;-465;0
10970;-489;0
10970;-529;0
10970;-599;0
10970;-605;0
10970;-647;0
10970;-639;0
10970;-632;0
10970;-576;0
10970;-570;0
10970;-573;0
10970;-577;0
10970;-560;0
10970;-572;0
10970;-550;0
10970;-558;0
10970;-579;0
10970;-572;0
10970;-600;0
10970;-593;0
10970;-536;0
10970;-554;0
10970;-588;0
10970;-571;0
10970;-568;0
10970;-564;0
10970;-540;0
10970;-544;0
10970;-515;0
10970;-537;0
10970;-558;0
10970;-551;0
10970;-512;0
10970;-527;0
10970;-519;0
10970;-509;0
10970;-530;0
10970;-529;0
10970;-533;0
10970;-504;0
10970;-494;0
10970;-501;0
10970;-516;0
10970;-533;0
10970;-521;0
10970;-521;0
10970;-497;0
10970;-488;0
10970;-488;0
10970;-521;0
10970;-508;0
10970;-522;0
10970;-495;0
10970;-519;0
10970;-495;0
10970;-522;0
10970;-501;0
10970;-521;0
10970;-526;0
10970;-479;0
10970;-507;0
10970;-532;0
10970;-521;0
10970;-538;0
10970;-514;0
10970;-497;0
10970;-485;0
10970;-474;0
10970;-458;0
10970;-487;0
10970;-455;0
10970;-464;0
10970;-460;0
10970;-490;0
10970;-489;0
10970;-511;0
10970;-529;0
10970;-544;0
10970;-504;0
10970;-491;0
10970;-489;0
10970;-516;0
10970;-519;0
10970;-519;0
10970;-532;0
10970;-552;0
10970;-536;0
10970;-570;0
10970;-598;0
10970;-615;0
10970;-586;0
10970;-565;0
10970;-539;0
10970;-539;0
10970;-562;0
10970;-553;0
10970;-569;0
10970;-577;0
10970;-535;0
10970;-557;0
10970;-549;0
10970;-568;0
10970;-551;0
10970;-576;0
10970;-557;0
10970;-565;0
10970;-555;0
10970;-537;0
10970;-546;0
10970;-528;0
10970;-498;0
10970;-509;0
10970;-499;0
10970;-536;0
10970;-536;0
10970;-571;0
10970;-563;0
10970;-538;0
10970;-505;0
10970;-517;0
10970;-507;0
10970;-509;0
10970;-494;0
10970;-484;0
10970;-487;0
10970;-481;0
10970;-486;0
10970;-536;0
10970;-526;0
10970;-524;0
10970;-494;0
10970;-489;0
10970;-493;0
10970;-521;0
10970;-518;0
10970;-548;0
10970;-528;0
10970;-520;0
10970;-511;0
10970;-543;0
10970;-532;0
10970;-545;0
10970;-514;0
10970;-511;0
10970;-512;0
10970;-524;0
10970;-507;0
10970;-542;0
10970;-544;0
10970;-506;0
10970;-520;0
10970;-533;0
10970;-528;0
10970;-547;0
10970;-530;0
10970;-543;0
10970;-497;0
10970;-470;0
10970;-474;0
10970;-484;0
10970;-473;0
10970;-473;0
10970;-460;0
10970;-461;0
10970;-443;0
10970;-468;0
10970;-534;0
10970;-547;0
10970;-545;0
10970;-566;0
10970;-563;0
10970;-601;0
10970;-612;0
10970;-619;0
10970;-638;0
10970;-658;0
10970;-610;0
10970;-659;0
10970;-678;0
10970;-699;0
10970;-708;0
10970;-734;0
10970;-693;0
10970;-683;0
10970;-698;0
10970;-689;0
10970;-713;0
10970;-690;0
10970;-625;0
10970;-647;0
10970;-603;0
10970;-590;0
10970;-523;0
10970;-492;0
10970;-445;0
10970;-391;0
10970;-327;0
10970;-314;0
10970;-254;0
10970;-236;0
10970;-212;0
10970;-236;0
10970;-261;0
10970;-281;0
10970;-321;0
10970;-353;0
10970;-312;0
10970;-400;0
10970;-447;0
10970;-460;0
10970;-465;0
10970;-496;0
10970;-595;0
10970;-546;0
10970;-547;0
10970;-501;0
10970;-444;0
10970;-546;0
10970;-537;0
10970;-556;0
10970;-578;0
10970;-551;0
10970;-538;0
10970;-529;0
10970;-521;0
10970;-554;0
10970;-529;0
10970;-526;0
10970;-592;0
10970;-552;0
10970;-534;0
10970;-550;0
10970;-484;0
10970;-574;0
10970;-567;0
10970;-557;0
10970;-555;0
10970;-562;0
10970;-572;0
10970;-551;0
10970;-563;0
10970;-535;0
10970;-539;0
10970;-522;0
10970;-622;0
10970;-581;0
10970;-552;0
10970;-528;0
10970;-457;0
10970;-529;0
10970;-549;0
10970;-541;0
10970;-551;0
10970;-564;0
10970;-516;0
10970;-517;0
10970;-545;0
10970;-534;0
10970;-542;0
10970;-537;0
10970;-574;0
10970;-521;0
10970;-477;0
10970;-476;0
10970;-438;0
10970;-514;0
10970;-482;0
10970;-504;0
10970;-496;0
10970;-535;0
10970;-528;0
10970;-546;0
10970;-532;0
10970;-536;0
10970;-510;0
10970;-536;0
10970;-620;0
10970;-572;0
10970;-538;0
10970;-549;0
10970;-458;0
10970;-539;0
10970;-524;0
10970;-560;0
10970;-536;0
10970;-512;0
10970;-592;0
10970;-592;0
10970;-574;0
10970;-576;0
10970;-552;0
10970;-564;0
10970;-543;0
10970;-537;0
10970;-534;0
10970;-584;0
10970;-590;0
10970;-617;0
10970;-624;0
10970;-651;0
10970;-636;0
10970;-648;0
10970;-603;0
10970;-608;0
10970;-591;0
10970;-547;0
10970;-550;0
10970;-564;0
10970;-560;0
10970;-596;0
10970;-592;0
10970;-607;0
10970;-597;0
10970;-568;0
10970;-548;0
10970;-567;0
10970;-540;0
10970;-557;0
10970;-523;0
10970;-516;0
10970;-472;0
10970;-464;0
10970;-477;0
10970;-511;0
10970;-466;0
10970;-468;0
10970;-473;0
10970;-489;0
10970;-529;0
10970;-565;0
10970;-589;0
10970;-606;0
10970;-552;0
10970;-571;0
10970;-570;0
10970;-595;0
10970;-574;0
10970;-588;0
10970;-561;0
10970;-573;0
10970;-541;0
10970;-563;0
10970;-563;0
10970;-557;0
10970;-512;0
10970;-519;0
10970;-508;0
10970;-528;0
10970;-539;0
10970;-568;0
10970;-567;0
10970;-566;0
10970;-552;0
10970;-545;0
10970;-544;0
10970;-546;0
10970;-525;0
10970;-544;0
10970;-564;0
10970;-556;0
10970;-576;0
10970;-616;0
10970;-610;0
10970;-615;0
10970;-578;0
10970;-580;0
10970;-569;0
10970;-579;0
10970;-556;0
10970;-553;0
10970;-552;0
11986;985733;0
11986;-575;0
11986;-548;0
11986;-502;0
11986;-511;0
11986;-512;0
11986;-530;0
11986;-559;0
11986;-549;0
11986;-560;0
11986;-567;0
11986;-551;0
11986;-585;0
11986;-615;0
11986;-562;0
11986;-552;0
11986;-514;0
11986;-504;0
11986;-512;0
11986;-524;0
11986;-511;0
11986;-521;0
11986;-504;0
11986;-478;0
11986;-526;0
11986;-571;0
11986;-571;0
11986;-602;0
11986;-610;0
11986;-590;0
11986;-591;0
11986;-600;0
11986;-607;0
11986;-609;0
11986;-578;0
11986;-552;0
11986;-524;0
11986;-523;0
11986;-496;0
11986;-495;0
11986;-497;0
11986;-471;0
11986;-424;0
11986;-437;0
11986;-437;0
11986;-457;0
11986;-487;0
11986;-493;0
11986;-504;0
11986;-533;0
11986;-537;0
11986;-581;0
11986;-595;0
11986;-587;0
11986;-562;0
11986;-569;0
11986;-523;0
11986;-509;0
11986;-479;0
11986;-483;0
11986;-478;0
11986;-462;0
11986;-426;0
11986;-481;0
11986;-484;0
11986;-503;0
11986;-516;0
11986;-523;0
11986;-488;0
11986;-490;0
11986;-465;0
11986;-529;0
11986;-513;0
11986;-506;0
11986;-472;0
11986;-489;0
11986;-490;0
11986;-470;0
11986;-488;0
11986;-472;0
11986;-472;0
11986;-427;0
11986;-432;0
11986;-439;0
11986;-442;0
11986;-461;0
11986;-428;0
11986;-433;0
11986;-444;0
11986;-432;0
11986;-452;0
11986;-507;0
11986;-489;0
11986;-498;0
11986;-479;0
11986;-493;0
11986;-514;0
11986;-532;0
11986;-503;0
11986;-509;0
11986;-451;0
11986;-440;0
11986;-482;0
11986;-519;0
11986;-506;0
11986;-522;0
11986;-498;0
11986;-514;0
11986;-502;0
11986;-528;0
11986;-560;0
11986;-613;0
11986;-596;0
11986;-616;0
11986;-604;0
11986;-631;0
11986;-625;0
11986;-650;0
11986;-674;0
11986;-644;0
11986;-632;0
11986;-629;0
11986;-650;0
11986;-647;0
11986;-620;0
11986;-603;0
11986;-598;0
11986;-580;0
11986;-528;0
11986;-511;0
11986;-493;0
11986;-461;0
11986;-404;0
11986;-380;0
11986;-312;0
11986;-273;0
11986;-215;0
11986;-224;0
11986;-217;0
11986;-243;0
11986;-224;0
11986;-308;0
11986;-360;0
11986;-302;0
11986;-258;0
11986;-332;0
11986;-326;0
11986;-353;0
11986;-345;0
11986;-414;0
11986;-449;0
11986;-465;0
11986;-457;0
11986;-495;0
11986;-581;0
11986;-528;0
11986;-534;0
11986;-566;0
11986;-471;0
11986;-518;0
11986;-532;0
11986;-548;0
11986;-583;0
11986;-556;0
11986;-561;0
11986;-563;0
11986;-540;0
11986;-531;0
11986;-511;0
11986;-533;0
11986;-567;0
11986;-504;0
11986;-472;0
11986;-482;0
11986;-386;0
11986;-470;0
11986;-467;0
11986;-504;0
11986;-524;0
11986;-514;0
11986;-561;0
11986;-596;0
11986;-575;0
11986;-598;0
11986;-573;0
11986;-568;0
11986;-626;0
11986;-574;0
11986;-555;0
11986;-555;0
11986;-466;0
11986;-515;0
11986;-543;0
11986;-558;0
11986;-550;0
11986;-576;0
11986;-564;0
11986;-561;0
11986;-527;0
11986;-527;0
11986;-520;0
11986;-531;0
11986;-609;0
11986;-549;0
11986;-539;0
11986;-525;0
11986;-480;0
11986;-587;0
11986;-630;0
11986;-602;0
11986;-557;0
11986;-553;0
11986;-527;0
11986;-543;0
11986;-549;0
11986;-579;0
11986;-584;0
11986;-581;0
11986;-618;0
11986;-593;0
11986;-617;0
11986;-584;0
11986;-512;0
11986;-580;0
11986;-542;0
11986;-549;0
11986;-621;0
11986;-655;0
11986;-626;0
11986;-602;0
11986;-553;0
11986;-566;0
11986;-543;0
11986;-560;0
11986;-572;0
11986;-591;0
11986;-581;0
11986;-560;0
11986;-533;0
11986;-558;0
11986;-576;0
11986;-578;0
11986;-552;0
11986;-544;0
11986;-507;0
11986;-518;0
11986;-501;0
11986;-551;0
11986;-529;0
11986;-522;0
11986;-536;0
11986;-534;0
11986;-538;0
11986;-565;0
11986;-562;0
11986;-591;0
11986;-535;0
11986;-498;0
11986;-537;0
11986;-565;0
11986;-551;0
11986;-584;0
11986;-565;0
11986;-567;0
11986;-575;0
11986;-582;0
11986;-594;0
11986;-612;0
11986;-601;0
11986;-556;0
11986;-571;0
11986;-579;0
11986;-566;0
11986;-585;0
11986;-570;0
11986;-584;0
11986;-525;0
11986;-539;0
11986;-547;0
11986;-579;0
11986;-561;0
11986;-579;0
11986;-549;0
11986;-562;0
11986;-536;0
11986;-554;0
11986;-568;0
11986;-573;0
11986;-530;0
11986;-543;0
11986;-521;0
11986;-530;0
11986;-552;0
11986;-556;0
11986;-561;0
11986;-552;0
11986;-492;0
11986;-516;0
11986;-505;0
11986;-528;0
11986;-527;0
11986;-548;0
11986;-534;0
11986;-552;0
11986;-567;0
11986;-582;0
11986;-629;0
11986;-618;0
11986;-573;0
11986;-578;0
11986;-545;0
11986;-556;0
11986;-574;0
11986;-598;0
11986;-573;0
11986;-565;0
11986;-517;0
11986;-535;0
11986;-541;0
11986;-558;0
11986;-549;0
11986;-556;0
11986;-551;0
11986;-513;0
11986;-524;0
11986;-584;0
11986;-560;0
11986;-560;0
11986;-564;0
11986;-598;0
11986;-607;0
11986;-653;0
11986;-655;0
11986;-683;0
11986;-671;0
11986;-612;0
11986;-619;0
11986;-653;0
11986;-639;0
11986;-645;0
11986;-651;0
11986;-625;0
11986;-611;0
11986;-601;0
11986;-590;0
11986;-626;0
11986;-591;0
11986;-602;0
11986;-593;0
11986;-612;0
11986;-607;0
11986;-636;0
11986;-618;0
11986;-635;0
11986;-567;0
11986;-580;0
11986;-578;0
11986;-613;0
11986;-581;0
11986;-589;0
11986;-582;0
11986;-590;0
11986;-567;0
11986;-583;0
11986;-595;0
11986;-612;0
11986;-585;0
11986;-601;0
11986;-594;0
11986;-611;0
11986;-627;0
11986;-614;0
11986;-638;0
11986;-604;0
11986;-555;0
11986;-576;0
11986;-562;0
11986;-562;0
11986;-548;0
11986;-565;0
11986;-560;0
11986;-597;0
11986;-594;0
11986;-641;0
11986;-664;0
11986;-639;0
11986;-586;0
11986;-584;0
11986;-543;0
11986;-557;0
11986;-547;0
11986;-577;0
11986;-565;0
11986;-562;0
11986;-528;0
11986;-563;0
11986;-553;0
11986;-587;0
11986;-594;0
11986;-595;0
11986;-565;0
12975;986705;0
12975;-539;0
12975;-445;0
12975;-543;0
12975;-530;0
12975;-551;0
12975;-554;0
12975;-534;0
12975;-531;0
12975;-568;0
12975;-554;0
12975;-574;0
12975;-568;0
12975;-566;0
12975;-583;0
12975;-532;0
12975;-557;0
12975;-546;0
12975;-453;0
12975;-525;0
12975;-515;0
12975;-539;0
12975;-563;0
12975;-575;0
12975;-618;0
12975;-626;0
12975;-576;0
12975;-548;0
12975;-581;0
12975;-584;0
12975;-643;0
12975;-588;0
12975;-535;0
12975;-518;0
12975;-436;0
12975;-478;0
12975;-508;0
12975;-520;0
12975;-459;0
12975;-453;0
12975;-445;0
12975;-481;0
12975;-500;0
12975;-542;0
12975;-568;0
12975;-620;0
12975;-652;0
12975;-632;0
12975;-614;0
12975;-628;0
12975;-538;0
12975;-613;0
12975;-583;0
12975;-591;0
12975;-658;0
12975;-674;0
12975;-664;0
12975;-657;0
12975;-606;0
12975;-597;0
12975;-587;0
12975;-604;0
12975;-580;0
12975;-587;0
12975;-576;0
12975;-557;0
12975;-524;0
12975;-554;0
12975;-571;0
12975;-590;0
12975;-587;0
12975;-574;0
12975;-552;0
12975;-541;0
12975;-515;0
12975;-550;0
12975;-583;0
12975;-554;0
12975;-551;0
12975;-561;0
12975;-550;0
12975;-585;0
12975;-578;0
12975;-575;0
12975;-554;0
12975;-507;0
12975;-482;0
12975;-508;0
12975;-492;0
12975;-507;0
12975;-495;0
12975;-506;0
12975;-493;0
12975;-505;0
12975;-535;0
12975;-558;0
12975;-559;0
12975;-563;0
12975;-543;0
12975;-561;0
12975;-591;0
12975;-598;0
12975;-623;0
12975;-591;0
12975;-561;0
12975;-534;0
12975;-573;0
12975;-554;0
12975;-567;0
12975;-559;0
12975;-541;0
12975;-522;0
12975;-517;0
12975;-502;0
12975;-536;0
12975;-556;0
12975;-509;0
12975;-531;0
12975;-522;0
12975;-538;0
12975;-502;0
12975;-508;0
12975;-504;0
12975;-541;0
12975;-495;0
12975;-535;0
12975;-560;0
12975;-596;0
12975;-565;0
12975;-592;0
12975;-568;0
12975;-567;0
12975;-523;0
12975;-553;0
12975;-576;0
12975;-593;0
12975;-564;0
12975;-574;0
12975;-560;0
12975;-568;0
12975;-542;0
12975;-548;0
12975;-539;0
12975;-520;0
12975;-498;0
12975;-545;0
12975;-546;0
12975;-572;0
12975;-593;0
12975;-563;0
12975;-536;0
12975;-541;0
12975;-537;0
12975;-586;0
12975;-605;0
12975;-578;0
12975;-572;0
12975;-591;0
12975;-569;0
12975;-613;0
12975;-607;0
12975;-614;0
12975;-603;0
12975;-574;0
12975;-555;0
12975;-580;0
12975;-620;0
12975;-605;0
12975;-617;0
12975;-609;0
12975;-569;0
12975;-584;0
12975;-581;0
12975;-626;0
12975;-586;0
12975;-586;0
12975;-562;0
12975;-572;0
12975;-597;0
12975;-582;0
12975;-595;0
12975;-608;0
12975;-559;0
12975;-548;0
12975;-561;0
12975;-597;0
12975;-573;0
12975;-591;0
12975;-575;0
12975;-581;0
12975;-549;0
12975;-543;0
12975;-559;0
12975;-583;0
12975;-511;0
12975;-509;0
12975;-528;0
12975;-524;0
12975;-546;0
12975;-593;0
12975;-603;0
12975;-627;0
12975;-615;0
12975;-613;0
12975;-651;0
12975;-654;0
12975;-600;0
12975;-590;0
12975;-540;0
12975;-532;0
12975;-539;0
12975;-572;0
12975;-609;0
12975;-627;0
12975;-611;0
12975;-643;0
12975;-615;0
12975;-620;0
12975;-595;0
12975;-608;0
12975;-580;0
12975;-539;0
12975;-500;0
12975;-528;0
12975;-527;0
12975;-557;0
12975;-561;0
12975;-583;0
12975;-558;0
12975;-568;0
12975;-512;0
12975;-542;0
12975;-562;0
12975;-521;0
12975;-493;0
12975;-497;0
12975;-478;0
12975;-481;0
12975;-495;0
12975;-491;0
12975;-479;0
12975;-449;0
12975;-412;0
12975;-421;0
12975;-436;0
12975;-418;0
12975;-425;0
12975;-425;0
12975;-395;0
12975;-415;0
12975;-425;0
12975;-477;0
12975;-479;0
12975;-474;0
12975;-453;0
12975;-458;0
12975;-462;0
12975;-447;0
12975;-468;0
12975;-481;0
12975;-448;0
12975;-436;0
12975;-440;0
12975;-483;0
12975;-478;0
12975;-506;0
12975;-480;0
12975;-475;0
12975;-410;0
12975;-395;0
12975;-386;0
12975;-424;0
12975;-402;0
12975;-426;0
12975;-452;0
12975;-500;0
12975;-538;0
12975;-588;0
12975;-586;0
12975;-594;0
12975;-557;0
12975;-511;0
12975;-515;0
12975;-530;0
12975;-498;0
12975;-510;0
12975;-478;0
12975;-476;0
12975;-467;0
12975;-491;0
12975;-515;0
12975;-532;0
12975;-477;0
12975;-454;0
12975;-454;0
12975;-462;0
12975;-465;0
12975;-495;0
12975;-492;0
12975;-481;0
12975;-454;0
12975;-483;0
12975;-489;0
12975;-519;0
12975;-539;0
12975;-506;0
12975;-507;0
12975;-503;0
12975;-473;0
12975;-507;0
12975;-534;0
12975;-483;0
12975;-480;0
12975;-480;0
12975;-457;0
12975;-473;0
12975;-460;0
12975;-479;0
12975;-485;0
12975;-457;0
12975;-438;0
12975;-483;0
12975;-483;0
12975;-492;0
12975;-497;0
12975;-489;0
12975;-466;0
12975;-472;0
12975;-491;0
12975;-515;0
12975;-513;0
12975;-500;0
12975;-474;0
12975;-494;0
12975;-470;0
12975;-498;0
12975;-485;0
12975;-515;0
12975;-493;0
12975;-494;0
12975;-544;0
12975;-535;0
12975;-536;0
12975;-538;0
12975;-519;0
12975;-541;0
12975;-514;0
12975;-527;0
12975;-530;0
12975;-578;0
12975;-538;0
12975;-536;0
12975;-487;0
12975;-488;0
12975;-483;0
12975;-511;0
12975;-513;0
12975;-542;0
12975;-510;0
12975;-496;0
12975;-512;0
12975;-531;0
12975;-514;0
12975;-532;0
12975;-508;0
12975;-508;0
12975;-492;0
12975;-505;0
12975;-528;0
12975;-562;0
12975;-540;0
12975;-543;0
12975;-533;0
12975;-542;0
12975;-518;0
12975;-516;0
12975;-523;0
12975;-496;0
12975;-464;0
12975;-484;0
12975;-485;0
12975;-503;0
12975;-495;0
12975;-512;0
12975;-491;0
12975;-508;0
12975;-486;0
12975;-528;0
12975;-536;0
12975;-529;0
12975;-487;0
12975;-506;0
12975;-490;0
12975;-513;0
12975;-519;0
12975;-533;0
12975;-554;0
12975;-553;0
12975;-539;0
12975;-583;0
12975;-594;0
13971;987707;0
13971;-431;0
13971;-405;0
13971;-430;0
13971;-438;0
13971;-476;0
13971;-481;0
13971;-487;0
13971;-517;0
13971;-584;0
13971;-615;0
13971;-656;0
13971;-632;0
13971;-623;0
13971;-594;0
13971;-590;0
13971;-596;0
13971;-612;0
13971;-556;0
13971;-552;0
13971;-518;0
13971;-513;0
13971;-521;0
13971;-534;0
13971;-519;0
13971;-522;0
13971;-467;0
13971;-489;0
13971;-514;0
13971;-534;0
13971;-561;0
13971;-561;0
13971;-550;0
13971;-540;0
13971;-536;0
13971;-520;0
13971;-549;0
13971;-527;0
13971;-482;0
13971;-485;0
13971;-490;0
13971;-480;0
13971;-494;0
13971;-517;0
13971;-510;0
13971;-507;0
13971;-474;0
13971;-504;0
13971;-498;0
13971;-515;0
13971;-496;0
13971;-491;0
13971;-449;0
13971;-441;0
13971;-439;0
13971;-481;0
13971;-491;0
13971;-505;0
13971;-528;0
13971;-533;0
13971;-553;0
13971;-582;0
13971;-568;0
13971;-587;0
13971;-552;0
13971;-519;0
13971;-479;0
13971;-514;0
13971;-505;0
13971;-538;0
13971;-544;0
13971;-547;0
13971;-526;0
13971;-533;0
13971;-520;0
13971;-549;0
13971;-542;0
13971;-515;0
13971;-506;0
13971;-495;0
13971;-493;0
13971;-522;0
13971;-567;0
13971;-590;0
13971;-589;0
13971;-597;0
13971;-618;0
13971;-657;0
13971;-623;0
13971;-572;0
13971;-572;0
13971;-572;0
13971;-572;0
13971;-572;0
13971;-572;0
13971;-572;0
13971;-572;0
13971;-572;0
13971;-572;0
13971;-572;0
13971;-572;0
13971;-572;0
13971;-557;0
13971;-553;0
13971;-535;0
13971;-541;0
13971;-517;0
13971;-529;0
13971;-541;0
13971;-543;0
13971;-486;0
13971;-498;0
13971;-500;0
13971;-527;0
13971;-539;0
13971;-562;0
13971;-533;0
13971;-526;0
13971;-475;0
13971;-468;0
13971;-504;0
13971;-472;0
13971;-447;0
13971;-443;0
13971;-457;0
13971;-444;0
13971;-476;0
13971;-509;0
13971;-511;0
13971;-515;0
13971;-472;0
13971;-502;0
13971;-503;0
13971;-527;0
13971;-517;0
13971;-546;0
13971;-537;0
13971;-559;0
13971;-558;0
13971;-599;0
13971;-585;0
13971;-572;0
13971;-516;0
13971;-520;0
13971;-488;0
13971;-505;0
13971;-491;0
13971;-515;0
13971;-482;0
13971;-460;0
13971;-474;0
13971;-530;0
13971;-531;0
13971;-542;0
13971;-538;0
13971;-541;0
13971;-536;0
13971;-550;0
13971;-548;0
13971;-605;0
13971;-589;0
13971;-566;0
13971;-555;0
13971;-560;0
13971;-550;0
13971;-576;0
13971;-573;0
13971;-579;0
13971;-546;0
13971;-522;0
13971;-496;0
13971;-520;0
13971;-498;0
13971;-519;0
13971;-499;0
13971;-516;0
13971;-503;0
13971;-511;0
13971;-559;0
13971;-564;0
13971;-548;0
13971;-538;0
13971;-505;0
13971;-516;0
13971;-510;0
13971;-537;0
13971;-533;0
13971;-560;0
13971;-513;0
13971;-515;0
13971;-543;0
13971;-535;0
13971;-539;0
13971;-549;0
13971;-511;0
13971;-513;0
13971;-518;0
13971;-498;0
13971;-548;0
13971;-518;0
13971;-524;0
13971;-512;0
13971;-493;0
13971;-451;0
13971;-433;0
13971;-454;0
13971;-450;0
13971;-445;0
13971;-405;0
13971;-442;0
13971;-471;0
13971;-510;0
13971;-511;0
13971;-554;0
13971;-534;0
13971;-541;0
13971;-528;0
13971;-587;0
13971;-594;0
13971;-569;0
13971;-507;0
13971;-515;0
13971;-502;0
13971;-562;0
13971;-580;0
13971;-620;0
13971;-654;0
13971;-611;0
13971;-618;0
13971;-645;0
13971;-627;0
13971;-620;0
13971;-588;0
13971;-569;0
13971;-527;0
13971;-524;0
13971;-495;0
13971;-523;0
13971;-526;0
13971;-491;0
13971;-496;0
13971;-507;0
13971;-491;0
13971;-524;0
13971;-560;0
13971;-577;0
13971;-559;0
13971;-537;0
13971;-517;0
13971;-540;0
13971;-525;0
13971;-530;0
13971;-508;0
13971;-504;0
13971;-465;0
13971;-473;0
13971;-473;0
13971;-507;0
13971;-482;0
13971;-485;0
13971;-474;0
13971;-502;0
13971;-504;0
13971;-527;0
13971;-553;0
13971;-581;0
13971;-530;0
13971;-548;0
13971;-547;0
13971;-570;0
13971;-553;0
13971;-526;0
13971;-480;0
13971;-464;0
13971;-386;0
13971;-394;0
13971;-415;0
13971;-463;0
13971;-464;0
13971;-517;0
13971;-511;0
13971;-535;0
13971;-541;0
13971;-574;0
13971;-584;0
13971;-579;0
13971;-538;0
13971;-551;0
13971;-574;0
13971;-605;0
13971;-597;0
13971;-600;0
13971;-581;0
13971;-552;0
13971;-533;0
13971;-563;0
13971;-562;0
13971;-559;0
13971;-530;0
13971;-552;0
13971;-534;0
13971;-579;0
13971;-581;0
13971;-614;0
13971;-606;0
13971;-586;0
13971;-574;0
13971;-587;0
13971;-571;0
13971;-575;0
13971;-548;0
13971;-538;0
13971;-525;0
13971;-526;0
13971;-504;0
13971;-554;0
13971;-530;0
13971;-542;0
13971;-506;0
13971;-523;0
13971;-505;0
13971;-527;0
13971;-546;0
13971;-531;0
13971;-532;0
13971;-506;0
13971;-500;0
13971;-528;0
13971;-521;0
13971;-527;0
13971;-524;0
13971;-529;0
13971;-521;0
13971;-534;0
13971;-539;0
13971;-549;0
13971;-525;0
13971;-519;0
13971;-478;0
13971;-479;0
13971;-490;0
13971;-494;0
13971;-503;0
13971;-481;0
13971;-411;0
13971;-416;0
13971;-469;0
13971;-472;0
13971;-485;0
13971;-538;0
13971;-564;0
13971;-612;0
13971;-658;0
13971;-669;0
13971;-732;0
13971;-726;0
13971;-629;0
13971;-605;0
13971;-568;0
13971;-583;0
13971;-584;0
13971;-625;0
13971;-625;0
13971;-617;0
13971;-597;0
13971;-608;0
13971;-591;0
13971;-603;0
13971;-565;0
13971;-546;0
13971;-530;0
13971;-517;0
13971;-507;0
13971;-544;0
13971;-552;0
13971;-549;0
13971;-527;0
13971;-541;0
13971;-536;0
13971;-549;0
13971;-545;0
13971;-573;0
13971;-559;0
13971;-543;0
13971;-519;0
13971;-551;0
13971;-536;0
13971;-548;0
13971;-529;0
13971;-526;0
13971;-515;0
13971;-521;0
13971;-500;0
13971;-561;0
13971;-541;0
13971;-534;0
13971;-507;0
13971;-517;0
13971;-483;0
13971;-493;0
13971;-501;0
14748;-416;0
14748;-442;0
14748;-469;0
14748;-488;0
14748;-483;0
14748;-527;0
14748;-542;0
14748;-593;0
14748;-585;0
14748;-602;0
14748;-559;0
14748;-518;0
14748;-515;0
14748;-505;0
14748;-508;0
14748;-521;0
14748;-498;0
14748;-502;0
14748;-476;0
14748;-496;0
14748;-490;0
14748;-536;0
14748;-523;0
14748;-542;0
14748;-551;0
14748;-554;0
14748;-568;0
14748;-574;0
14748;-586;0
14748;-590;0
14748;-566;0
14748;-529;0
14748;-536;0
14748;-565;0
14748;-537;0
14748;-563;0
14748;-531;0
14748;-526;0
14748;-492;0
14748;-503;0
14748;-523;0
14748;-536;0
14748;-527;0
14748;-492;0
14748;-499;0
14748;-513;0
14748;-504;0
14748;-526;0
14748;-508;0
14748;-509;0
14748;-475;0
14748;-496;0
14748;-492;0
14748;-506;0
14748;-523;0
14748;-497;0
14748;-497;0
14748;-502;0
14748;-458;0
14748;-481;0
14748;-519;0
14748;-483;0
14748;-488;0
14748;-462;0
14748;-467;0
14748;-471;0
14748;-481;0
14748;-497;0
14748;-502;0
14748;-483;0
14748;-492;0
14748;-531;0
14748;-562;0
14748;-566;0
14748;-573;0
14748;-576;0
14748;-541;0
14748;-546;0
14748;-525;0
14748;-550;0
14748;-540;0
14748;-494;0
14748;-450;0
14748;-463;0
14748;-447;0
14748;-462;0
14748;-481;0
14748;-522;0
14748;-529;0
14748;-537;0
14748;-552;0
14748;-594;0
14748;-600;0
14748;-604;0
14748;-585;0
14748;-588;0
14748;-547;0
14748;-539;0
14748;-534;0
14748;-557;0
14748;-528;0
14748;-541;0
14748;-534;0
14748;-544;0
14748;-551;0
14748;-572;0
14748;-559;0
14748;-569;0
14748;-548;0
14748;-524;0
14748;-548;0
14748;-574;0
14748;-571;0
14748;-558;0
14748;-541;0
14748;-516;0
14748;-502;0
14748;-510;0
14748;-521;0
14748;-538;0
14748;-497;0
14748;-496;0
14748;-488;0
14748;-492;0
14748;-489;0
14748;-520;0
14748;-507;0
14748;-489;0
14748;-446;0
14748;-479;0
14748;-488;0
14748;-532;0
14748;-521;0
14748;-531;0
14748;-523;0
14748;-522;0
14748;-491;0
14748;-520;0
14748;-557;0
14748;-516;0
14748;-502;0
14748;-494;0
14748;-468;0
14748;-468;0
14748;-451;0
14748;-465;0
14748;-470;0
14748;-469;0
14748;-439;0
14748;-486;0
14748;-509;0
14748;-541;0
14748;-570;0
14748;-578;0
14748;-567;0
14748;-554;0
14748;-539;0
14748;-548;0
14748;-546;0
14748;-524;0
14748;-475;0
14748;-490;0
14748;-471;0
14748;-508;0
14748;-522;0
14748;-563;0
14748;-546;0
14748;-530;0
14748;-520;0
14748;-541;0
14748;-562;0
14748;-565;0
14748;-536;0
14748;-525;0
14748;-503;0
14748;-455;0
14748;-477;0
14748;-517;0
14748;-480;0
14748;-481;0
14748;-462;0
14748;-473;0
14748;-488;0
14748;-531;0
14748;-543;0
14748;-570;0
14748;-537;0
14748;-531;0
14748;-553;0
14748;-579;0
14748;-557;0
14748;-551;0
14748;-537;0
14748;-535;0
14748;-525;0
14748;-518;0
14748;-528;0
14748;-539;0
14748;-530;0
14748;-512;0
14748;-517;0
14748;-527;0
14748;-511;0
14748;-523;0
14748;-539;0
14748;-508;0
14748;-467;0
14748;-454;0
14748;-437;0
14748;-452;0
14748;-427;0
14748;-433;0
14748;-413;0
14748;-428;0
14748;-415;0
14748;-453;0
14748;-522;0
14748;-511;0
14748;-513;0
14748;-536;0
14748;-531;0
14748;-550;0
14748;-567;0
14748;-557;0
14748;-557;0
14748;-531;0
14748;-475;0
14748;-489;0
14748;-509;0
14748;-541;0
14748;-524;0
14748;-542;0
14748;-524;0
14748;-549;0
14748;-554;0
14748;-554;0
14748;-543;0
14748;-524;0
14748;-498;0
14748;-495;0
14748;-502;0
14748;-501;0
14748;-513;0
14748;-527;0
14748;-493;0
14748;-458;0
14748;-473;0
14748;-478;0
14748;-484;0
14748;-485;0
14748;-472;0
14748;-481;0
14748;-459;0
14748;-464;0
14748;-480;0
14748;-534;0
14748;-511;0
14748;-511;0
14748;-480;0
14748;-481;0
14748;-471;0
14748;-473;0
14748;-462;0
14748;-492;0
14748;-451;0
14748;-456;0
14748;-466;0
14748;-514;0
14748;-498;0
14748;-516;0
14748;-515;0
14748;-518;0
14748;-492;0
14748;-510;0
14748;-538;0
14748;-566;0
14748;-529;0
14748;-522;0
14748;-522;0
14748;-515;0
14748;-500;0
14748;-519;0
14748;-535;0
14748;-518;0
14748;-464;0
14748;-461;0
14748;-450;0
14748;-466;0
14748;-480;0
14748;-476;0
14748;-468;0
14748;-469;0
14748;-443;0
14748;-486;0
14748;-517;0
14748;-527;0
14748;-524;0
14748;-521;0
14748;-499;0
14748;-515;0
14748;-492;0
14748;-493;0
14748;-505;0
14748;-502;0
14748;-456;0
14748;-506;0
14748;-502;0
14748;-523;0
14748;-526;0
14748;-546;0
14748;-534;0
14748;-551;0
14748;-529;0
14748;-557;0
14748;-544;0
14748;-537;0
14748;-507;0
14748;-525;0
14748;-518;0
14748;-528;0
14748;-529;0
14748;-542;0
14748;-535;0
14748;-487;0
14748;-482;0
14748;-481;0
14748;-495;0
14748;-508;0
14748;-491;0
14748;-494;0
14748;-503;0
14748;-484;0
14748;-503;0
14748;-557;0
14748;-530;0
14748;-534;0
14748;-503;0
14748;-492;0
14748;-490;0
14748;-507;0
14748;-501;0
14748;-530;0
14748;-497;0
14748;-489;0
14748;-501;0
14748;-538;0
14748;-527;0
14748;-550;0
14748;-523;0
14748;-518;0
14748;-479;0
14748;-494;0
14748;-493;0
14748;-519;0
14748;-496;0
14748;-495;0
14748;-468;0
14748;-483;0
14748;-472;0
14748;-488;0
14748;-484;0
16044;989711;0
16044;-528;0
16044;-510;0
16044;-530;0
16044;-515;0
16044;-510;0
16044;-506;0
16044;-507;0
16044;-486;0
16044;-545;0
16044;-542;0
16044;-538;0
16044;-515;0
16044;-531;0
16044;-512;0
16044;-545;0
16044;-536;0
16044;-557;0
16044;-557;0
16044;-536;0
16044;-512;0
16044;-550;0
16044;-542;0
16044;-554;0
16044;-560;0
16044;-558;0
16044;-532;0
16044;-544;0
16044;-537;0
16044;-591;0
16044;-569;0
16044;-570;0
16044;-548;0
16044;-564;0
16044;-558;0
16044;-571;0
16044;-567;0
16044;-574;0
16044;-532;0
16044;-514;0
16044;-514;0
16044;-537;0
16044;-517;0
16044;-520;0
16044;-487;0
16044;-489;0
16044;-497;0
16044;-471;0
16044;-496;0
16044;-526;0
16044;-485;0
16044;-483;0
16044;-507;0
16044;-483;0
16044;-496;0
16044;-530;0
16044;-522;0
16044;-537;0
16044;-518;0
16044;-500;0
16044;-524;0
16044;-542;0
16044;-524;0
16044;-544;0
16044;-514;0
16044;-540;0
16044;-527;0
16044;-561;0
16044;-582;0
16044;-583;0
16044;-555;0
16044;-566;0
16044;-549;0
16044;-571;0
16044;-548;0
16044;-540;0
16044;-544;0
16044;-499;0
16044;-459;0
16044;-497;0
16044;-500;0
16044;-534;0
16044;-522;0
16044;-527;0
16044;-531;0
16044;-545;0
16044;-529;0
16044;-586;0
16044;-609;0
16044;-612;0
16044;-587;0
16044;-601;0
16044;-582;0
16044;-590;0
16044;-560;0
16044;-563;0
16044;-560;0
16044;-527;0
16044;-497;0
16044;-526;0
16044;-505;0
16044;-523;0
16044;-495;0
16044;-501;0
16044;-475;0
16044;-483;0
16044;-473;0
16044;-513;0
16044;-501;0
16044;-497;0
16044;-477;0
16044;-483;0
16044;-495;0
16044;-508;0
16044;-526;0
16044;-564;0
16044;-535;0
16044;-550;0
16044;-587;0
16044;-627;0
16044;-654;0
16044;-683;0
16044;-675;0
16044;-700;0
16044;-661;0
16044;-659;0
16044;-661;0
16044;-709;0
16044;-665;0
16044;-641;0
16044;-580;0
16044;-528;0
16044;-536;0
16044;-559;0
16044;-526;0
16044;-503;0
16044;-414;0
16044;-403;0
16044;-404;0
16044;-437;0
16044;-391;0
16044;-360;0
16044;-278;0
16044;-269;0
16044;-242;0
16044;-274;0
16044;-310;0
16044;-300;0
16044;-200;0
16044;-267;0
16044;-292;0
16044;-314;0
16044;-318;0
16044;-355;0
16044;-374;0
16044;-398;0
16044;-500;0
16044;-482;0
16044;-505;0
16044;-522;0
16044;-452;0
16044;-545;0
16044;-557;0
16044;-585;0
16044;-568;0
16044;-602;0
16044;-625;0
16044;-578;0
16044;-568;0
16044;-564;0
16044;-535;0
16044;-565;0
16044;-627;0
16044;-609;0
16044;-602;0
16044;-578;0
16044;-471;0
16044;-584;0
16044;-565;0
16044;-558;0
16044;-555;0
16044;-550;0
16044;-523;0
16044;-531;0
16044;-503;0
16044;-551;0
16044;-559;0
16044;-547;0
16044;-586;0
16044;-541;0
16044;-523;0
16044;-506;0
16044;-465;0
16044;-526;0
16044;-522;0
16044;-500;0
16044;-493;0
16044;-513;0
16044;-512;0
16044;-526;0
16044;-520;0
16044;-508;0
16044;-508;0
16044;-498;0
16044;-598;0
16044;-599;0
16044;-558;0
16044;-554;0
16044;-494;0
16044;-529;0
16044;-521;0
16044;-542;0
16044;-535;0
16044;-562;0
16044;-495;0
16044;-504;0
16044;-504;0
16044;-528;0
16044;-514;0
16044;-521;0
16044;-581;0
16044;-499;0
16044;-481;0
16044;-476;0
16044;-432;0
16044;-530;0
16044;-511;0
16044;-524;0
16044;-508;0
16044;-540;0
16044;-540;0
16044;-573;0
16044;-708;0
16044;-610;0
16044;-610;0
16044;-610;0
16044;-610;0
16044;-610;0
16044;-610;0
16044;-610;0
16044;-610;0
16044;-610;0
16044;-610;0
16044;-610;0
16044;-610;0
16044;-610;0
16044;-572;0
16044;-549;0
16044;-540;0
16044;-559;0
16044;-579;0
16044;-563;0
16044;-538;0
16044;-545;0
16044;-532;0
16044;-547;0
16044;-566;0
16044;-558;0
16044;-560;0
16044;-540;0
16044;-497;0
16044;-535;0
16044;-529;0
16044;-547;0
16044;-530;0
16044;-542;0
16044;-509;0
16044;-514;0
16044;-491;0
16044;-549;0
16044;-535;0
16044;-537;0
16044;-511;0
16044;-527;0
16044;-499;0
16044;-522;0
16044;-535;0
16044;-548;0
16044;-513;0
16044;-486;0
16044;-469;0
16044;-489;0
16044;-454;0
16044;-457;0
16044;-421;0
16044;-431;0
16044;-403;0
16044;-400;0
16044;-415;0
16044;-455;0
16044;-442;0
16044;-488;0
16044;-533;0
16044;-543;0
16044;-586;0
16044;-622;0
16044;-627;0
16044;-653;0
16044;-617;0
16044;-603;0
16044;-591;0
16044;-606;0
16044;-576;0
16044;-609;0
16044;-592;0
16044;-597;0
16044;-563;0
16044;-573;0
16044;-580;0
16044;-580;0
16044;-521;0
16044;-520;0
16044;-491;0
16044;-507;0
16044;-503;0
16044;-535;0
16044;-542;0
16044;-565;0
16044;-533;0
16044;-576;0
16044;-594;0
16044;-612;0
16044;-617;0
16044;-581;0
16044;-566;0
16044;-574;0
16044;-541;0
16044;-568;0
16044;-592;0
16044;-563;0
16044;-565;0
16044;-553;0
16044;-540;0
16044;-554;0
16044;-550;0
16044;-564;0
16044;-571;0
16044;-546;0
16044;-513;0
16044;-542;0
16044;-536;0
16044;-525;0
16044;-535;0
16044;-546;0
16044;-532;0
16044;-553;0
16044;-539;0
16044;-590;0
16044;-611;0
16044;-610;0
16044;-581;0
16044;-579;0
16044;-589;0
16044;-569;0
16044;-570;0
16044;-585;0
16044;-554;0
16044;-521;0
16044;-504;0
16044;-551;0
16044;-546;0
16044;-569;0
16044;-563;0
16044;-569;0
16044;-585;0
16044;-554;0
16044;-590;0
16044;-611;0
16044;-600;0
16044;-592;0
16044;-576;0
16044;-564;0
16044;-573;0
16044;-572;0
16044;-573;0
16044;-588;0
16044;-568;0
16044;-524;0
16044;-552;0
16044;-590;0
16044;-589;0
16044;-631;0
16044;-635;0
16044;-632;0
16044;-625;0
16044;-638;0
16044;-659;0
16044;-701;0
16044;-675;0
16044;-682;0
16044;-650;0
16044;-659;0
16044;-628;0
16044;-608;0
16044;-609;0
16044;-562;0
16044;-513;0
16044;-516;0
16044;-529;0
16044;-565;0
16044;-558;0
16943;990611;0
16943;-611;0
16943;-595;0
16943;-629;0
16943;-621;0
16943;-639;0
16943;-660;0
16943;-693;0
16943;-699;0
16943;-707;0
16943;-652;0
16943;-682;0
16943;-715;0
16943;-724;0
16943;-677;0
16943;-644;0
16943;-582;0
16943;-566;0
16943;-516;0
16943;-515;0
16943;-471;0
16943;-389;0
16943;-348;0
16943;-337;0
16943;-327;0
16943;-324;0
16943;-279;0
16943;-287;0
16943;-271;0
16943;-240;0
16943;-237;0
16943;-254;0
16943;-232;0
16943;-342;0
16943;-371;0
16943;-394;0
16943;-471;0
16943;-390;0
16943;-367;0
16943;-446;0
16943;-396;0
16943;-489;0
16943;-486;0
16943;-532;0
16943;-560;0
16943;-630;0
16943;-654;0
16943;-721;0
16943;-673;0
16943;-613;0
16943;-559;0
16943;-567;0
16943;-638;0
16943;-598;0
16943;-556;0
16943;-552;0
16943;-454;0
16943;-529;0
16943;-587;0
16943;-613;0
16943;-577;0
16943;-537;0
16943;-526;0
16943;-498;0
16943;-503;0
16943;-506;0
16943;-528;0
16943;-539;0
16943;-543;0
16943;-486;0
16943;-527;0
16943;-534;0
16943;-480;0
16943;-564;0
16943;-535;0
16943;-541;0
16943;-552;0
16943;-545;0
16943;-610;0
16943;-615;0
16943;-561;0
16943;-556;0
16943;-522;0
16943;-516;0
16943;-584;0
16943;-546;0
16943;-526;0
16943;-508;0
16943;-385;0
16943;-480;0
16943;-484;0
16943;-513;0
16943;-489;0
16943;-488;0
16943;-472;0
16943;-479;0
16943;-434;0
16943;-482;0
16943;-529;0
16943;-551;0
16943;-618;0
16943;-580;0
16943;-576;0
16943;-606;0
16943;-543;0
16943;-619;0
16943;-603;0
16943;-529;0
16943;-503;0
16943;-530;0
16943;-533;0
16943;-569;0
16943;-578;0
16943;-592;0
16943;-602;0
16943;-713;0
16943;-672;0
16943;-715;0
16943;-685;0
16943;-660;0
16943;-627;0
16943;-607;0
16943;-554;0
16943;-561;0
16943;-585;0
16943;-576;0
16943;-566;0
16943;-537;0
16943;-516;0
16943;-545;0
16943;-537;0
16943;-560;0
16943;-546;0
16943;-546;0
16943;-518;0
16943;-519;0
16943;-568;0
16943;-598;0
16943;-603;0
16943;-573;0
16943;-580;0
16943;-580;0
16943;-567;0
16943;-563;0
16943;-558;0
16943;-568;0
16943;-504;0
16943;-483;0
16943;-510;0
16943;-519;0
16943;-529;0
16943;-557;0
16943;-529;0
16943;-536;0
16943;-540;0
16943;-524;0
16943;-567;0
16943;-592;0
16943;-542;0
16943;-528;0
16943;-522;0
16943;-497;0
16943;-520;0
16943;-533;0
16943;-524;0
16943;-526;0
16943;-477;0
16943;-509;0
16943;-511;0
16943;-557;0
16943;-563;0
16943;-571;0
16943;-570;0
16943;-541;0
16943;-546;0
16943;-606;0
16943;-612;0
16943;-593;0
16943;-571;0
16943;-545;0
16943;-553;0
16943;-548;0
16943;-566;0
16943;-573;0
16943;-591;0
16943;-537;0
16943;-492;0
16943;-533;0
16943;-529;0
16943;-537;0
16943;-555;0
16943;-541;0
16943;-516;0
16943;-499;0
16943;-480;0
16943;-533;0
16943;-539;0
16943;-595;0
16943;-595;0
16943;-595;0
16943;-595;0
16943;-595;0
16943;-595;0
16943;-595;0
16943;-595;0
16943;-595;0
16943;-595;0
16943;-595;0
16943;-595;0
16943;-595;0
16943;-560;0
16943;-537;0
16943;-533;0
16943;-565;0
16943;-588;0
16943;-582;0
16943;-585;0
16943;-579;0
16943;-555;0
16943;-565;0
16943;-564;0
16943;-598;0
16943;-579;0
16943;-572;0
16943;-543;0
16943;-546;0
16943;-550;0
16943;-572;0
16943;-565;0
16943;-592;0
16943;-559;0
16943;-550;0
16943;-578;0
16943;-600;0
16943;-587;0
16943;-612;0
16943;-578;0
16943;-565;0
16943;-556;0
16943;-544;0
16943;-572;0
16943;-581;0
16943;-548;0
16943;-564;0
16943;-556;0
16943;-578;0
16943;-581;0
16943;-617;0
16943;-608;0
16943;-598;0
16943;-569;0
16943;-557;0
16943;-582;0
16943;-599;0
16943;-578;0
16943;-579;0
16943;-540;0
16943;-537;0
16943;-500;0
16943;-530;0
16943;-534;0
16943;-529;0
16943;-506;0
16943;-536;0
16943;-530;0
16943;-558;0
16943;-562;0
16943;-601;0
16943;-586;0
16943;-565;0
16943;-556;0
16943;-592;0
16943;-573;0
16943;-575;0
16943;-576;0
16943;-551;0
16943;-523;0
16943;-528;0
16943;-520;0
16943;-547;0
16943;-574;0
16943;-548;0
16943;-556;0
16943;-597;0
16943;-587;0
16943;-600;0
16943;-622;0
16943;-616;0
16943;-615;0
16943;-576;0
16943;-550;0
16943;-587;0
16943;-565;0
16943;-547;0
16943;-527;0
16943;-515;0
16943;-478;0
16943;-470;0
16943;-481;0
16943;-488;0
16943;-490;0
16943;-504;0
16943;-487;0
16943;-478;0
16943;-474;0
16943;-457;0
16943;-484;0
16943;-511;0
16943;-465;0
16943;-456;0
16943;-474;0
16943;-497;0
16943;-478;0
16943;-503;0
16943;-477;0
16943;-473;0
16943;-478;0
16943;-464;0
16943;-486;0
16943;-497;0
16943;-456;0
16943;-439;0
16943;-440;0
16943;-425;0
16943;-431;0
16943;-448;0
16943;-431;0
16943;-431;0
16943;-406;0
16943;-384;0
16943;-411;0
16943;-445;0
16943;-430;0
16943;-449;0
16943;-431;0
16943;-443;0
16943;-422;0
16943;-448;0
16943;-466;0
16943;-477;0
16943;-441;0
16943;-440;0
16943;-411;0
16943;-432;0
16943;-437;0
16943;-482;0
16943;-492;0
16943;-497;0
16943;-473;0
16943;-515;0
16943;-520;0
16943;-527;0
16943;-523;0
16943;-515;0
16943;-476;0
16943;-485;0
16943;-472;0
16943;-515;0
16943;-542;0
16943;-523;0
16943;-493;0
16943;-498;0
16943;-459;0
16943;-474;0
16943;-492;0
16943;-489;0
16943;-493;0
16943;-484;0
16943;-486;0
16943;-551;0
16943;-558;0
16943;-561;0
16943;-564;0
16943;-563;0
16943;-518;0
16943;-520;0
16943;-489;0
16943;-520;0
16943;-484;0
16943;-482;0
16943;-463;0
16943;-486;0
16943;-478;0
16943;-515;0
16943;-514;0
16943;-535;0
16943;-488;0
16943;-479;0
16943;-481;0
16943;-505;0
16943;-501;0
16943;-501;0
16943;-469;0
16943;-478;0
16943;-443;0
16943;-456;0
16943;-473;0
16943;-497;0
16943;-459;0
16943;-455;0
16943;-467;0
17986;991631;0
17986;-480;0
17986;-459;0
17986;-463;0
17986;-469;0
17986;-443;0
17986;-464;0
17986;-488;0
17986;-497;0
17986;-481;0
17986;-484;0
17986;-458;0
17986;-420;0
17986;-435;0
17986;-420;0
17986;-461;0
17986;-481;0
17986;-459;0
17986;-491;0
17986;-518;0
17986;-505;0
17986;-516;0
17986;-533;0
17986;-508;0
17986;-496;0
17986;-487;0
17986;-484;0
17986;-529;0
17986;-496;0
17986;-494;0
17986;-463;0
17986;-463;0
17986;-433;0
17986;-435;0
17986;-462;0
17986;-453;0
17986;-434;0
17986;-447;0
17986;-460;0
17986;-493;0
17986;-491;0
17986;-524;0
17986;-530;0
17986;-545;0
17986;-519;0
17986;-526;0
17986;-529;0
17986;-534;0
17986;-486;0
17986;-490;0
17986;-466;0
17986;-474;0
17986;-463;0
17986;-469;0
17986;-476;0
17986;-478;0
17986;-440;0
17986;-463;0
17986;-501;0
17986;-511;0
17986;-528;0
17986;-544;0
17986;-503;0
17986;-492;0
17986;-445;0
17986;-478;0
17986;-487;0
17986;-485;0
17986;-442;0
17986;-453;0
17986;-440;0
17986;-458;0
17986;-466;0
17986;-483;0
17986;-481;0
17986;-475;0
17986;-461;0
17986;-514;0
17986;-557;0
17986;-595;0
17986;-591;0
17986;-609;0
17986;-580;0
17986;-553;0
17986;-516;0
17986;-520;0
17986;-493;0
17986;-483;0
17986;-456;0
17986;-473;0
17986;-456;0
17986;-492;0
17986;-500;0
17986;-519;0
17986;-519;0
17986;-494;0
17986;-513;0
17986;-549;0
17986;-541;0
17986;-533;0
17986;-539;0
17986;-514;0
17986;-497;0
17986;-508;0
17986;-504;0
17986;-550;0
17986;-525;0
17986;-536;0
17986;-524;0
17986;-528;0
17986;-503;0
17986;-530;0
17986;-513;0
17986;-524;0
17986;-505;0
17986;-498;0
17986;-501;0
17986;-537;0
17986;-518;0
17986;-542;0
17986;-507;0
17986;-514;0
17986;-469;0
17986;-446;0
17986;-473;0
17986;-464;0
17986;-469;0
17986;-478;0
17986;-471;0
17986;-505;0
17986;-515;0
17986;-563;0
17986;-564;0
17986;-584;0
17986;-548;0
17986;-554;0
17986;-543;0
17986;-524;0
17986;-509;0
17986;-507;0
17986;-502;0
17986;-496;0
17986;-475;0
17986;-479;0
17986;-511;0
17986;-504;0
17986;-464;0
17986;-467;0
17986;-501;0
17986;-512;0
17986;-542;0
17986;-573;0
17986;-573;0
17986;-583;0
17986;-540;0
17986;-551;0
17986;-553;0
17986;-549;0
17986;-519;0
17986;-513;0
17986;-518;0
17986;-498;0
17986;-514;0
17986;-564;0
17986;-565;0
17986;-564;0
17986;-524;0
17986;-519;0
17986;-512;0
17986;-532;0
17986;-529;0
17986;-546;0
17986;-554;0
17986;-536;0
17986;-526;0
17986;-550;0
17986;-546;0
17986;-541;0
17986;-540;0
17986;-521;0
17986;-502;0
17986;-519;0
17986;-517;0
17986;-554;0
17986;-524;0
17986;-522;0
17986;-514;0
17986;-535;0
17986;-527;0
17986;-555;0
17986;-561;0
17986;-570;0
17986;-535;0
17986;-521;0
17986;-519;0
17986;-546;0
17986;-526;0
17986;-542;0
17986;-524;0
17986;-534;0
17986;-498;0
17986;-500;0
17986;-531;0
17986;-514;0
17986;-502;0
17986;-500;0
17986;-480;0
17986;-496;0
17986;-497;0
17986;-525;0
17986;-511;0
17986;-526;0
17986;-468;0
17986;-478;0
17986;-518;0
17986;-533;0
17986;-564;0
17986;-532;0
17986;-541;0
17986;-533;0
17986;-531;0
17986;-542;0
17986;-576;0
17986;-584;0
17986;-561;0
17986;-535;0
17986;-532;0
17986;-521;0
17986;-528;0
17986;-545;0
17986;-533;0
17986;-525;0
17986;-488;0
17986;-521;0
17986;-505;0
17986;-524;0
17986;-506;0
17986;-511;0
17986;-519;0
17986;-492;0
17986;-478;0
17986;-521;0
17986;-521;0
17986;-514;0
17986;-526;0
17986;-523;0
17986;-545;0
17986;-576;0
17986;-572;0
17986;-609;0
17986;-594;0
17986;-557;0
17986;-540;0
17986;-548;0
17986;-531;0
17986;-546;0
17986;-532;0
17986;-540;0
17986;-521;0
17986;-530;0
17986;-519;0
17986;-558;0
17986;-560;0
17986;-539;0
17986;-530;0
17986;-544;0
17986;-530;0
17986;-532;0
17986;-553;0
17986;-554;0
17986;-537;0
17986;-522;0
17986;-516;0
17986;-543;0
17986;-522;0
17986;-535;0
17986;-490;0
17986;-492;0
17986;-456;0
17986;-443;0
17986;-445;0
17986;-479;0
17986;-447;0
