9;-543;1
9;-501;1
9;-556;1
9;-534;1
9;-493;1
9;-550;1
9;-533;1
9;-489;1
9;-553;1
9;-533;1
9;-493;1
9;-557;1
9;-527;1
9;-557;1
9;-534;1
9;-493;1
9;-511;1
9;-571;1
9;-524;1
9;-575;1
9;-580;1
9;-584;1
9;-591;1
9;-544;1
9;-505;1
9;-505;1
9;-505;1
9;-505;1
9;-505;1
9;-505;1
9;-505;1
9;-505;1
9;-505;1
9;-505;1
9;-505;1
9;-505;1
9;-505;1
9;-503;1
9;-557;1
9;-541;1
9;-544;1
9;-550;1
9;-500;1
9;-493;1
9;-552;1
9;-528;1
9;-557;1
9;-544;1
9;-561;1
9;-539;1
9;-557;1
9;-541;1
9;-563;1
9;-544;1
9;-501;1
9;-499;1
9;-560;1
9;-540;1
9;-499;1
9;-557;1
9;-535;1
9;-503;1
9;-569;1
9;-520;1
9;-575;1
9;-529;1
61;-581;1
61;-507;1
61;-554;1
61;-533;1
61;-494;1
61;-523;1
61;-564;1
61;-497;1
61;-548;1
61;-542;1
61;-533;1
61;-560;1
61;-485;1
61;-480;1
61;-544;1
61;-532;1
61;-544;1
61;-550;1
61;-494;1
61;-494;1
61;-494;1
61;-494;1
61;-494;1
61;-494;1
61;-494;1
61;-494;1
61;-494;1
61;-494;1
61;-494;1
61;-494;1
61;-494;1
61;-488;1
61;-550;1
61;-531;1
61;-559;1
61;-529;1
61;-489;1
61;-471;1
61;-540;1
61;-519;1
61;-474;1
61;-539;1
61;-545;1
61;-545;1
61;-545;1
61;-545;1
61;-545;1
61;-545;1
61;-545;1
61;-545;1
61;-545;1
61;-545;1
61;-545;1
61;-545;1
61;-545;1
61;-480;1
61;-529;1
61;-506;1
61;-464;1
61;-492;1
111;-527;1
111;-461;1
111;-504;1
111;-497;1
111;-447;1
111;-489;1
111;-506;1
111;-453;1
111;-504;1
111;-483;1
111;-432;1
111;-481;1
111;-473;1
111;-430;1
111;-486;1
111;-473;1
111;-496;1
111;-475;1
111;-502;1
111;-480;1
111;-497;1
111;-478;1
111;-499;1
111;-478;1
111;-502;1
111;-476;1
111;-501;1
111;-480;1
111;-504;1
111;-471;1
111;-425;1
111;-424;1
111;-488;1
111;-480;1
111;-511;1
111;-461;1
111;-506;1
111;-438;1
111;-490;1
111;-465;1
111;-449;1
111;-499;1
111;-463;1
111;-499;1
111;-491;1
111;-482;1
111;-471;1
111;-491;1
167;-477;1
167;-477;1
167;-477;1
167;-477;1
167;-477;1
167;-477;1
167;-477;1
167;-477;1
167;-477;1
167;-477;1
167;-477;1
167;-477;1
167;-477;1
167;-427;1
167;-484;1
167;-474;1
167;-495;1
167;-471;1
167;-428;1
167;-425;1
167;-480;1
167;-464;1
167;-429;1
167;-490;1
167;-472;1
167;-432;1
167;-502;1
167;-481;1
167;-515;1
167;-490;1
167;-521;1
167;-513;1
167;-546;1
167;-470;1
167;-438;1
167;-443;1
167;-485;1
167;-406;1
167;-462;1
167;-449;1
167;-449;1
167;-509;1
167;-497;1
167;-547;1
167;-576;1
167;-611;1
167;-633;1
167;-677;1
167;-633;1
167;-642;1
167;-721;1
167;-730;1
167;-705;1
167;-770;1
167;-774;1
167;-747;1
167;-809;1
167;-790;1
167;-810;1
167;-775;1
216;-606;1
216;-606;1
216;-606;1
216;-606;1
216;-606;1
216;-606;1
216;-606;1
216;-606;1
216;-606;1
216;-606;1
216;-606;1
216;-606;1
216;-606;1
216;-548;1
216;-584;1
216;-543;1
216;-548;1
216;-500;1
216;-414;1
216;-370;1
216;-512;1
216;-424;1
216;-331;1
216;-324;1
216;-319;1
216;-342;1
216;-409;1
216;-417;1
216;-421;1
216;-476;1
216;-468;1
216;-519;1
216;-522;1
216;-528;1
216;-523;1
216;-556;1
216;-630;1
216;-605;1
216;-612;1
216;-595;1
216;-470;1
216;-589;1
216;-595;1
216;-537;1
216;-598;1
216;-592;1
216;-619;1
216;-595;1
216;-622;1
216;-602;1
216;-622;1
216;-609;1
216;-635;1
216;-632;1
269;-609;1
269;-555;1
269;-535;1
269;-594;1
269;-543;1
269;-608;1
269;-603;1
269;-577;1
269;-640;1
269;-593;1
269;-648;1
269;-585;1
269;-639;1
269;-570;1
269;-690;1
269;-637;1
269;-576;1
269;-591;1
269;-545;1
269;-545;1
269;-591;1
269;-607;1
269;-597;1
269;-628;1
269;-616;1
269;-637;1
269;-646;1
269;-635;1
269;-633;1
269;-626;1
269;-645;1
269;-587;1
269;-636;1
269;-747;1
269;-701;1
269;-684;1
269;-670;1
269;-628;1
269;-632;1
269;-604;1
269;-610;1
269;-593;1
269;-610;1
269;-587;1
269;-610;1
269;-584;1
269;-601;1
269;-577;1
269;-603;1
269;-540;1
269;-580;1
269;-567;1
269;-514;1
269;-540;1
321;-526;1
321;-526;1
321;-526;1
321;-526;1
321;-526;1
321;-526;1
321;-526;1
321;-526;1
321;-526;1
321;-526;1
321;-526;1
321;-526;1
321;-526;1
321;-560;1
321;-554;1
321;-558;1
321;-540;1
321;-563;1
321;-502;1
321;-491;1
321;-549;1
321;-537;1
321;-545;1
321;-539;1
321;-541;1
321;-541;1
321;-541;1
321;-541;1
321;-541;1
321;-541;1
321;-541;1
321;-541;1
321;-541;1
321;-541;1
321;-541;1
321;-541;1
321;-541;1
321;-514;1
321;-531;1
321;-525;1
321;-543;1
321;-521;1
321;-517;1
321;-517;1
321;-517;1
321;-517;1
321;-517;1
321;-517;1
321;-517;1
321;-517;1
321;-517;1
321;-517;1
321;-517;1
321;-517;1
321;-517;1
321;-553;1
321;-481;1
321;-464;1
321;-461;1
321;-489;1
321;-532;1
321;-469;1
321;-518;1
321;-505;1
321;-493;1
321;-531;1
377;-466;1
377;-462;1
377;-518;1
377;-511;1
377;-467;1
377;-504;1
377;-509;1
377;-456;1
377;-512;1
377;-490;1
377;-447;1
377;-500;1
377;-496;1
377;-459;1
377;-510;1
377;-486;1
377;-442;1
377;-501;1
377;-495;1
377;-447;1
377;-506;1
377;-490;1
377;-443;1
377;-500;1
377;-468;1
377;-468;1
377;-468;1
377;-468;1
377;-468;1
377;-468;1
377;-468;1
377;-468;1
377;-468;1
377;-468;1
377;-468;1
377;-468;1
377;-468;1
377;-518;1
377;-437;1
377;-420;1
377;-420;1
377;-444;1
377;-443;1
377;-443;1
377;-443;1
377;-443;1
377;-443;1
377;-443;1
377;-443;1
377;-443;1
377;-443;1
377;-443;1
377;-443;1
377;-443;1
377;-443;1
377;-429;1
377;-488;1
377;-478;1
377;-481;1
377;-494;1
434;-497;1
434;-497;1
434;-497;1
434;-497;1
434;-497;1
434;-497;1
434;-497;1
434;-497;1
434;-497;1
434;-497;1
434;-497;1
434;-497;1
434;-497;1
434;-479;1
434;-500;1
434;-484;1
434;-437;1
434;-505;1
434;-480;1
434;-448;1
434;-496;1
434;-486;1
434;-440;1
434;-440;1
434;-497;1
434;-476;1
434;-495;1
434;-478;1
434;-496;1
434;-474;1
434;-428;1
434;-424;1
434;-488;1
434;-466;1
434;-428;1
434;-448;1
434;-500;1
434;-434;1
434;-486;1
434;-476;1
434;-432;1
434;-466;1
434;-495;1
434;-436;1
434;-479;1
434;-469;1
434;-425;1
434;-471;1
434;-488;1
434;-431;1
434;-482;1
434;-463;1
434;-425;1
434;-480;1
434;-474;1
434;-433;1
434;-496;1
434;-475;1
434;-500;1
434;-480;1
483;-432;1
483;-430;1
483;-483;1
483;-464;1
483;-484;1
483;-468;1
483;-493;1
483;-476;1
483;-498;1
483;-476;1
483;-434;1
483;-441;1
483;-506;1
483;-442;1
483;-487;1
483;-481;1
483;-463;1
483;-516;1
483;-448;1
483;-442;1
483;-486;1
483;-474;1
483;-465;1
483;-495;1
483;-473;1
483;-503;1
483;-499;1
483;-483;1
483;-484;1
483;-494;1
483;-480;1
483;-489;1
483;-500;1
483;-481;1
483;-505;1
483;-500;1
483;-448;1
483;-449;1
483;-505;1
483;-478;1
483;-443;1
483;-505;1
483;-494;1
483;-494;1
483;-494;1
483;-494;1
483;-494;1
483;-494;1
483;-494;1
483;-494;1
483;-494;1
483;-494;1
483;-494;1
483;-494;1
483;-494;1
483;-477;1
483;-504;1
483;-498;1
483;-532;1
483;-462;1
483;-446;1
483;-447;1
483;-515;1
483;-496;1
483;-476;1
483;-524;1
535;-484;1
535;-525;1
535;-529;1
535;-513;1
535;-496;1
535;-524;1
535;-453;1
535;-446;1
535;-502;1
535;-493;1
535;-498;1
535;-509;1
535;-455;1
535;-449;1
535;-506;1
535;-502;1
535;-516;1
535;-511;1
535;-526;1
535;-506;1
535;-519;1
535;-502;1
535;-458;1
535;-520;1
535;-497;1
535;-454;1
535;-513;1
535;-497;1
535;-522;1
535;-498;1
535;-525;1
535;-504;1
535;-523;1
535;-524;1
535;-551;1
535;-483;1
535;-465;1
535;-461;1
535;-513;1
535;-490;1
535;-482;1
535;-536;1
535;-494;1
535;-537;1
535;-543;1
535;-516;1
535;-496;1
535;-525;1
588;-506;1
588;-528;1
588;-524;1
588;-518;1
588;-467;1
588;-516;1
588;-523;1
588;-467;1
588;-530;1
588;-510;1
588;-519;1
588;-507;1
588;-463;1
588;-459;1
588;-522;1
588;-504;1
588;-466;1
588;-519;1
588;-496;1
588;-452;1
588;-514;1
588;-504;1
588;-526;1
588;-504;1
588;-529;1
588;-510;1
588;-542;1
588;-521;1
588;-494;1
588;-549;1
588;-484;1
588;-490;1
588;-553;1
588;-480;1
588;-469;1
588;-493;1
588;-536;1
588;-469;1
588;-523;1
588;-500;1
588;-497;1
588;-529;1
588;-511;1
588;-540;1
588;-538;1
588;-528;1
588;-528;1
588;-537;1
639;-476;1
639;-479;1
639;-537;1
639;-519;1
639;-541;1
639;-526;1
639;-541;1
639;-517;1
639;-539;1
639;-518;1
639;-537;1
639;-517;1
639;-544;1
639;-520;1
639;-545;1
639;-527;1
639;-543;1
639;-526;1
639;-480;1
639;-477;1
639;-535;1
639;-514;1
639;-470;1
639;-485;1
639;-547;1
639;-480;1
639;-527;1
639;-543;1
639;-556;1
639;-504;1
639;-544;1
639;-475;1
639;-529;1
639;-511;1
639;-504;1
639;-538;1
639;-478;1
639;-473;1
639;-522;1
639;-511;1
639;-519;1
639;-527;1
639;-517;1
639;-515;1
639;-527;1
639;-512;1
639;-532;1
639;-516;1
694;-533;1
694;-506;1
694;-527;1
694;-510;1
694;-534;1
694;-511;1
694;-475;1
694;-475;1
694;-475;1
694;-475;1
694;-475;1
694;-475;1
694;-475;1
694;-475;1
694;-475;1
694;-475;1
694;-475;1
694;-475;1
694;-475;1
694;-475;1
694;-475;1
694;-475;1
694;-475;1
694;-475;1
694;-475;1
694;-472;1
694;-523;1
694;-457;1
694;-445;1
694;-473;1
694;-525;1
694;-461;1
694;-515;1
694;-499;1
694;-494;1
694;-523;1
694;-456;1
694;-446;1
694;-504;1
694;-494;1
694;-451;1
694;-507;1
694;-510;1
694;-510;1
694;-510;1
694;-510;1
694;-510;1
694;-510;1
694;-510;1
694;-510;1
694;-510;1
694;-510;1
694;-510;1
694;-510;1
694;-510;1
694;-496;1
694;-518;1
694;-503;1
694;-521;1
694;-503;1
694;-522;1
694;-509;1
694;-522;1
694;-507;1
694;-531;1
694;-505;1
694;-535;1
694;-498;1
694;-530;1
694;-493;1
694;-458;1
694;-471;1
746;-494;1
746;-494;1
746;-494;1
746;-494;1
746;-494;1
746;-494;1
746;-494;1
746;-494;1
746;-494;1
746;-494;1
746;-494;1
746;-494;1
746;-494;1
746;-530;1
746;-528;1
746;-515;1
746;-500;1
746;-526;1
746;-465;1
746;-457;1
746;-512;1
746;-502;1
746;-452;1
746;-502;1
746;-505;1
746;-451;1
746;-510;1
746;-491;1
746;-453;1
746;-520;1
746;-501;1
746;-458;1
746;-514;1
746;-498;1
746;-516;1
746;-504;1
746;-527;1
746;-527;1
746;-527;1
746;-527;1
746;-527;1
746;-527;1
746;-527;1
746;-527;1
746;-527;1
746;-527;1
746;-527;1
746;-527;1
746;-527;1
746;-512;1
746;-544;1
746;-470;1
746;-449;1
746;-467;1
746;-530;1
746;-464;1
746;-517;1
746;-501;1
746;-459;1
746;-487;1
799;-530;1
799;-460;1
799;-508;1
799;-501;1
799;-498;1
799;-518;1
799;-446;1
799;-446;1
799;-446;1
799;-446;1
799;-446;1
799;-446;1
799;-446;1
799;-446;1
799;-446;1
799;-446;1
799;-446;1
799;-446;1
799;-446;1
799;-442;1
799;-502;1
799;-488;1
799;-446;1
799;-504;1
799;-482;1
799;-447;1
799;-501;1
799;-483;1
799;-511;1
799;-492;1
799;-521;1
799;-499;1
799;-519;1
799;-493;1
799;-455;1
799;-448;1
799;-509;1
799;-485;1
799;-510;1
799;-510;1
799;-542;1
799;-496;1
799;-542;1
799;-475;1
799;-514;1
799;-498;1
799;-491;1
799;-536;1
799;-471;1
799;-459;1
799;-524;1
799;-501;1
799;-499;1
799;-527;1
799;-500;1
799;-516;1
799;-518;1
799;-510;1
799;-461;1
799;-512;1
853;-728;1
853;-728;1
853;-728;1
853;-728;1
853;-728;1
853;-728;1
853;-728;1
853;-728;1
853;-728;1
853;-728;1
853;-728;1
853;-728;1
853;-728;1
853;-728;1
853;-728;1
853;-728;1
853;-728;1
853;-728;1
853;-728;1
853;-728;1
853;-728;1
853;-728;1
853;-728;1
853;-728;1
853;-728;1
853;-728;1
853;-728;1
853;-728;1
853;-728;1
853;-728;1
853;-728;1
853;-728;1
853;-728;1
853;-728;1
853;-728;1
853;-728;1
853;-728;1
853;-728;1
853;-728;1
853;-728;1
853;-728;1
853;-728;1
853;-728;1
853;-728;1
853;-728;1
853;-728;1
853;-728;1
853;-728;1
853;-728;1
853;-689;1
853;-774;1
853;-761;1
853;-794;1
853;-778;1
853;-801;1
853;-702;1
853;-572;1
853;-659;1
853;-794;1
853;-734;1
904;-668;1
904;-635;1
904;-606;1
904;-643;1
904;-569;1
904;-540;1
904;-580;1
904;-544;1
904;-534;1
904;-479;1
904;-382;1
904;-366;1
904;-403;1
904;-308;1
904;-426;1
904;-373;1
904;-360;1
904;-429;1
904;-332;1
904;-459;1
904;-472;1
904;-472;1
904;-427;1
904;-474;1
904;-513;1
904;-455;1
904;-506;1
904;-518;1
904;-474;1
904;-525;1
904;-561;1
904;-561;1
904;-561;1
904;-561;1
904;-561;1
904;-561;1
904;-561;1
904;-561;1
904;-561;1
904;-561;1
904;-561;1
904;-561;1
904;-561;1
904;-552;1
904;-574;1
904;-557;1
904;-577;1
904;-562;1
904;-516;1
904;-500;1
904;-555;1
904;-545;1
904;-571;1
904;-587;1
957;-575;1
957;-608;1
957;-466;1
957;-509;1
957;-519;1
957;-585;1
957;-539;1
957;-584;1
957;-597;1
957;-585;1
957;-557;1
957;-606;1
957;-498;1
957;-498;1
957;-498;1
957;-498;1
957;-498;1
957;-498;1
957;-498;1
957;-498;1
957;-498;1
957;-498;1
957;-498;1
957;-498;1
957;-498;1
957;-590;1
957;-592;1
957;-596;1
957;-535;1
957;-578;1
957;-576;1
957;-518;1
957;-572;1
957;-559;1
957;-518;1
957;-574;1
957;-630;1
957;-542;1
957;-706;1
957;-626;1
957;-620;1
957;-595;1
957;-600;1
957;-564;1
957;-577;1
957;-548;1
957;-563;1
957;-543;1
957;-496;1
957;-490;1
957;-546;1
957;-541;1
957;-567;1
957;-518;1
1008;-560;1
1008;-490;1
1008;-528;1
1008;-514;1
1008;-495;1
1008;-535;1
1008;-466;1
1008;-460;1
1008;-521;1
1008;-497;1
1008;-459;1
1008;-501;1
1008;-498;1
1008;-498;1
1008;-498;1
1008;-498;1
1008;-498;1
1008;-498;1
1008;-498;1
1008;-498;1
1008;-498;1
1008;-498;1
1008;-498;1
1008;-498;1
1008;-498;1
1008;-450;1
1008;-509;1
1008;-493;1
1008;-517;1
1008;-492;1
1008;-445;1
1008;-446;1
1008;-512;1
1008;-490;1
1008;-519;1
1008;-493;1
1008;-459;1
1008;-454;1
1008;-511;1
1008;-502;1
1008;-456;1
1008;-467;1
1008;-528;1
1008;-457;1
1008;-509;1
1008;-519;1
1008;-539;1
1008;-489;1
1008;-543;1
1008;-466;1
1008;-508;1
1008;-492;1
1008;-478;1
1008;-527;1
1008;-492;1
1008;-526;1
1008;-532;1
1008;-511;1
1008;-506;1
1008;-530;1
1062;-514;1
1062;-520;1
1062;-521;1
1062;-509;1
1062;-517;1
1062;-516;1
1062;-527;1
1062;-515;1
1062;-522;1
1062;-498;1
1062;-520;1
1062;-502;1
1062;-523;1
1062;-504;1
1062;-528;1
1062;-509;1
1062;-528;1
1062;-509;1
1062;-465;1
1062;-467;1
1062;-517;1
1062;-496;1
1062;-455;1
1062;-518;1
1062;-511;1
1062;-543;1
1062;-460;1
1062;-464;1
1062;-521;1
1062;-484;1
1062;-522;1
1062;-454;1
1062;-505;1
1062;-493;1
1062;-456;1
1062;-483;1
1062;-527;1
1062;-458;1
1062;-511;1
1062;-492;1
1062;-494;1
1062;-517;1
1062;-453;1
1062;-448;1
1062;-506;1
1062;-491;1
1062;-442;1
1062;-491;1
1062;-489;1
1062;-440;1
1062;-502;1
1062;-483;1
1062;-506;1
1062;-491;1
1119;-449;1
1119;-444;1
1119;-513;1
1119;-494;1
1119;-455;1
1119;-506;1
1119;-494;1
1119;-444;1
1119;-507;1
1119;-492;1
1119;-459;1
1119;-524;1
1119;-476;1
1119;-522;1
1119;-453;1
1119;-456;1
1119;-518;1
1119;-479;1
1119;-528;1
1119;-456;1
1119;-506;1
1119;-493;1
1119;-484;1
1119;-524;1
1119;-503;1
1119;-528;1
1119;-523;1
1119;-498;1
1119;-456;1
1119;-495;1
1119;-514;1
1119;-453;1
1119;-505;1
1119;-490;1
1119;-444;1
1119;-498;1
1119;-491;1
1119;-451;1
1119;-506;1
1119;-496;1
1119;-526;1
1119;-498;1
1119;-457;1
1119;-452;1
1119;-501;1
1119;-498;1
1119;-521;1
1119;-499;1
1166;-524;1
1166;-496;1
1166;-518;1
1166;-498;1
1166;-515;1
1166;-491;1
1166;-450;1
1166;-450;1
1166;-506;1
1166;-491;1
1166;-452;1
1166;-476;1
1166;-524;1
1166;-458;1
1166;-509;1
1166;-486;1
1166;-487;1
1166;-521;1
1166;-455;1
1166;-448;1
1166;-509;1
1166;-489;1
1166;-484;1
1166;-497;1
1166;-441;1
1166;-432;1
1166;-489;1
1166;-480;1
1166;-432;1
1166;-492;1
1166;-477;1
1166;-443;1
1166;-498;1
1166;-484;1
1166;-441;1
1166;-500;1
1166;-481;1
1166;-444;1
1166;-502;1
1166;-482;1
1166;-500;1
1166;-483;1
1166;-509;1
1166;-478;1
1166;-503;1
1166;-485;1
1166;-507;1
1166;-500;1
1166;-535;1
1166;-466;1
1166;-515;1
1166;-526;1
1166;-546;1
1166;-500;1
1217;-542;1
1217;-467;1
1217;-513;1
1217;-502;1
1217;-449;1
1217;-478;1
1217;-513;1
1217;-452;1
1217;-508;1
1217;-487;1
1217;-492;1
1217;-511;1
1217;-529;1
1217;-529;1
1217;-529;1
1217;-529;1
1217;-529;1
1217;-529;1
1217;-529;1
1217;-529;1
1217;-529;1
1217;-529;1
1217;-529;1
1217;-529;1
1217;-529;1
1217;-515;1
1217;-528;1
1217;-515;1
1217;-526;1
1217;-507;1
1217;-470;1
1217;-464;1
1217;-521;1
1217;-504;1
1217;-462;1
1217;-523;1
1217;-499;1
1217;-524;1
1217;-500;1
1217;-525;1
1217;-517;1
1217;-553;1
1217;-489;1
1217;-469;1
1217;-530;1
1217;-537;1
1217;-551;1
1217;-508;1
1217;-545;1
1217;-471;1
1217;-524;1
1217;-508;1
1217;-463;1
1217;-491;1
1269;-521;1
1269;-460;1
1269;-521;1
1269;-502;1
1269;-462;1
1269;-503;1
1269;-513;1
1269;-460;1
1269;-513;1
1269;-508;1
1269;-530;1
1269;-514;1
1269;-462;1
1269;-462;1
1269;-520;1
1269;-499;1
1269;-458;1
1269;-518;1
1269;-491;1
1269;-455;1
1269;-513;1
1269;-491;1
1269;-523;1
1269;-490;1
1269;-470;1
1269;-470;1
1269;-470;1
1269;-470;1
1269;-470;1
1269;-470;1
1269;-470;1
1269;-470;1
1269;-470;1
1269;-470;1
1269;-470;1
1269;-470;1
1269;-470;1
1269;-473;1
1269;-532;1
1269;-466;1
1269;-453;1
1269;-471;1
1269;-523;1
1269;-458;1
1269;-512;1
1269;-490;1
1269;-479;1
1269;-517;1
1269;-493;1
1269;-524;1
1269;-527;1
1269;-506;1
1269;-513;1
1269;-518;1
1269;-519;1
1269;-525;1
1269;-532;1
1269;-521;1
1269;-474;1
1269;-521;1
1320;-512;1
1320;-468;1
1320;-529;1
1320;-509;1
1320;-532;1
1320;-508;1
1320;-526;1
1320;-508;1
1320;-530;1
1320;-515;1
1320;-532;1
1320;-509;1
1320;-534;1
1320;-510;1
1320;-532;1
1320;-524;1
1320;-473;1
1320;-482;1
1320;-531;1
1320;-531;1
1320;-531;1
1320;-531;1
1320;-531;1
1320;-531;1
1320;-531;1
1320;-531;1
1320;-531;1
1320;-531;1
1320;-531;1
1320;-531;1
1320;-531;1
1320;-473;1
1320;-520;1
1320;-501;1
1320;-494;1
1320;-525;1
1320;-463;1
1320;-460;1
1320;-521;1
1320;-503;1
1320;-465;1
1320;-510;1
1320;-518;1
1320;-462;1
1320;-513;1
1320;-510;1
1320;-455;1
1320;-512;1
1373;-500;1
1373;-455;1
1373;-511;1
1373;-493;1
1373;-517;1
1373;-498;1
1373;-523;1
1373;-523;1
1373;-523;1
1373;-523;1
1373;-523;1
1373;-523;1
1373;-523;1
1373;-523;1
1373;-523;1
1373;-523;1
1373;-523;1
1373;-523;1
1373;-523;1
1373;-497;1
1373;-523;1
1373;-504;1
1373;-473;1
1373;-537;1
1373;-490;1
1373;-542;1
1373;-546;1
1373;-511;1
1373;-459;1
1373;-484;1
1373;-533;1
1373;-469;1
1373;-521;1
1373;-510;1
1373;-494;1
1373;-523;1
1373;-466;1
1373;-456;1
1373;-522;1
1373;-502;1
1373;-466;1
1373;-504;1
1373;-511;1
1373;-456;1
1373;-507;1
1373;-502;1
1373;-521;1
1373;-502;1
1373;-460;1
1373;-460;1
1373;-460;1
1373;-460;1
1373;-460;1
1373;-460;1
1373;-460;1
1373;-460;1
1373;-460;1
1373;-460;1
1373;-460;1
1373;-460;1
1373;-460;1
1373;-452;1
1373;-521;1
1373;-502;1
1373;-528;1
1373;-510;1
1423;-531;1
1423;-501;1
1423;-520;1
1423;-527;1
1423;-555;1
1423;-501;1
1423;-545;1
1423;-498;1
1423;-546;1
1423;-473;1
1423;-459;1
1423;-481;1
1423;-527;1
1423;-467;1
1423;-526;1
1423;-503;1
1423;-498;1
1423;-527;1
1423;-518;1
1423;-518;1
1423;-518;1
1423;-518;1
1423;-518;1
1423;-518;1
1423;-518;1
1423;-518;1
1423;-518;1
1423;-518;1
1423;-518;1
1423;-518;1
1423;-518;1
1423;-516;1
1423;-518;1
1423;-512;1
1423;-527;1
1423;-510;1
1423;-540;1
1423;-540;1
1423;-540;1
1423;-540;1
1423;-540;1
1423;-540;1
1423;-540;1
1423;-540;1
1423;-540;1
1423;-540;1
1423;-540;1
1423;-540;1
1423;-540;1
1423;-517;1
1423;-529;1
1423;-519;1
1423;-472;1
1423;-534;1
1423;-478;1
1423;-478;1
1423;-478;1
1423;-478;1
1423;-478;1
1423;-478;1
1423;-478;1
1423;-478;1
1423;-478;1
1423;-478;1
1423;-478;1
1423;-478;1
1423;-478;1
1423;-474;1
1423;-530;1
1423;-543;1
1423;-560;1
1423;-521;1
1474;-556;1
1474;-484;1
1474;-541;1
1474;-518;1
1474;-515;1
1474;-547;1
1474;-483;1
1474;-476;1
1474;-534;1
1474;-514;1
1474;-477;1
1474;-515;1
1474;-525;1
1474;-471;1
1474;-520;1
1474;-517;1
1474;-530;1
1474;-522;1
1474;-536;1
1474;-518;1
1474;-536;1
1474;-520;1
1474;-541;1
1474;-515;1
1474;-536;1
1474;-519;1
1474;-537;1
1474;-519;1
1474;-471;1
1474;-528;1
1474;-499;1
1474;-442;1
1474;-520;1
1474;-483;1
1474;-470;1
1474;-534;1
1474;-491;1
1474;-541;1
1474;-541;1
1474;-517;1
1474;-465;1
1474;-493;1
1474;-535;1
1474;-470;1
1474;-521;1
1474;-501;1
1474;-493;1
1474;-520;1
1525;-508;1
1525;-524;1
1525;-527;1
1525;-509;1
1525;-458;1
1525;-505;1
1525;-528;1
1525;-528;1
1525;-528;1
1525;-528;1
1525;-528;1
1525;-528;1
1525;-528;1
1525;-528;1
1525;-528;1
1525;-528;1
1525;-528;1
1525;-528;1
1525;-528;1
1525;-508;1
1525;-527;1
1525;-514;1
1525;-539;1
1525;-509;1
1525;-469;1
1525;-464;1
1525;-528;1
1525;-516;1
1525;-465;1
1525;-454;1
1525;-520;1
1525;-499;1
1525;-522;1
1525;-503;1
1525;-457;1
1525;-472;1
1525;-534;1
1525;-467;1
1525;-522;1
1525;-506;1
1525;-485;1
1525;-531;1
1525;-467;1
1525;-458;1
1525;-517;1
1525;-508;1
1525;-508;1
1525;-542;1
1525;-526;1
1525;-545;1
1525;-554;1
1525;-532;1
1525;-531;1
1525;-515;1
1580;-445;1
1580;-435;1
1580;-477;1
1580;-470;1
1580;-438;1
1580;-514;1
1580;-509;1
1580;-494;1
1580;-576;1
1580;-587;1
1580;-644;1
1580;-660;1
1580;-801;1
1580;-801;1
1580;-801;1
1580;-801;1
1580;-801;1
1580;-801;1
1580;-801;1
1580;-801;1
1580;-801;1
1580;-801;1
1580;-801;1
1580;-801;1
1580;-801;1
1580;-789;1
1580;-819;1
1580;-749;1
1580;-653;1
1580;-691;1
1580;-622;1
1580;-622;1
1580;-622;1
1580;-622;1
1580;-622;1
1580;-622;1
1580;-622;1
1580;-622;1
1580;-622;1
1580;-622;1
1580;-622;1
1580;-622;1
1580;-622;1
1580;-572;1
1580;-716;1
1580;-632;1
1580;-579;1
1580;-569;1
1580;-381;1
1580;-393;1
1580;-410;1
1580;-372;1
1580;-356;1
1580;-343;1
1580;-286;1
1580;-291;1
1580;-360;1
1580;-377;1
1580;-340;1
1580;-413;1
1633;-492;1
1633;-413;1
1633;-466;1
1633;-481;1
1633;-356;1
1633;-480;1
1633;-482;1
1633;-443;1
1633;-506;1
1633;-500;1
1633;-457;1
1633;-524;1
1633;-524;1
1633;-566;1
1633;-511;1
1633;-487;1
1633;-633;1
1633;-545;1
1633;-591;1
1633;-513;1
1633;-489;1
1633;-549;1
1633;-533;1
1633;-571;1
1633;-536;1
1633;-578;1
1633;-581;1
1633;-570;1
1633;-517;1
1633;-547;1
1633;-579;1
1633;-520;1
1633;-650;1
1633;-577;1
1633;-570;1
1633;-578;1
1633;-443;1
1633;-500;1
1633;-557;1
1633;-561;1
1633;-582;1
1633;-556;1
1633;-501;1
1633;-487;1
1633;-550;1
1633;-537;1
1633;-493;1
1633;-557;1
1633;-621;1
1633;-530;1
1633;-576;1
1633;-553;1
1633;-502;1
1633;-561;1
1686;-584;1
1686;-569;1
1686;-591;1
1686;-583;1
1686;-545;1
1686;-600;1
1686;-554;1
1686;-604;1
1686;-607;1
1686;-588;1
1686;-608;1
1686;-576;1
1686;-608;1
1686;-539;1
1686;-511;1
1686;-572;1
1686;-526;1
1686;-559;1
1686;-707;1
1686;-707;1
1686;-707;1
1686;-707;1
1686;-707;1
1686;-707;1
1686;-707;1
1686;-707;1
1686;-707;1
1686;-707;1
1686;-707;1
1686;-707;1
1686;-707;1
1686;-715;1
1686;-645;1
1686;-614;1
1686;-545;1
1686;-591;1
1686;-560;1
1686;-513;1
1686;-567;1
1686;-545;1
1686;-563;1
1686;-537;1
1686;-560;1
1686;-537;1
1686;-556;1
1686;-528;1
1686;-470;1
1686;-461;1
1686;-524;1
1686;-497;1
1686;-522;1
1686;-506;1
1686;-460;1
1686;-472;1
1686;-526;1
1686;-453;1
1686;-512;1
1686;-497;1
1686;-457;1
1686;-484;1
1737;-530;1
1737;-469;1
1737;-523;1
1737;-501;1
1737;-444;1
1737;-484;1
1737;-506;1
1737;-451;1
1737;-508;1
1737;-498;1
1737;-510;1
1737;-519;1
1737;-526;1
1737;-526;1
1737;-526;1
1737;-526;1
1737;-526;1
1737;-526;1
1737;-526;1
1737;-526;1
1737;-526;1
1737;-526;1
1737;-526;1
1737;-526;1
1737;-526;1
1737;-503;1
1737;-529;1
1737;-511;1
1737;-521;1
1737;-501;1
1737;-456;1
1737;-452;1
1737;-517;1
1737;-499;1
1737;-461;1
1737;-529;1
1737;-502;1
1737;-528;1
1737;-461;1
1737;-443;1
1737;-439;1
1737;-463;1
1737;-518;1
1737;-448;1
1737;-507;1
1737;-491;1
1737;-441;1
1737;-479;1
1737;-522;1
1737;-458;1
1737;-516;1
1737;-494;1
1737;-497;1
1737;-520;1
1737;-455;1
1737;-444;1
1737;-508;1
1737;-478;1
1737;-499;1
1737;-494;1
1793;-526;1
1793;-526;1
1793;-526;1
1793;-526;1
1793;-526;1
1793;-526;1
1793;-526;1
1793;-526;1
1793;-526;1
1793;-526;1
1793;-526;1
1793;-526;1
1793;-526;1
1793;-506;1
1793;-526;1
1793;-508;1
1793;-462;1
1793;-519;1
1793;-506;1
1793;-506;1
1793;-506;1
1793;-506;1
1793;-506;1
1793;-506;1
1793;-506;1
1793;-506;1
1793;-506;1
1793;-506;1
1793;-506;1
1793;-506;1
1793;-506;1
1793;-535;1
1793;-469;1
1793;-472;1
1793;-530;1
1793;-494;1
1793;-519;1
1793;-519;1
1793;-519;1
1793;-519;1
1793;-519;1
1793;-519;1
1793;-519;1
1793;-519;1
1793;-519;1
1793;-519;1
1793;-519;1
1793;-519;1
1793;-519;1
1793;-455;1
1793;-504;1
1793;-492;1
1793;-493;1
1793;-518;1
1793;-499;1
1793;-499;1
1793;-499;1
1793;-499;1
1793;-499;1
1793;-499;1
1793;-499;1
1793;-499;1
1793;-499;1
1793;-499;1
1793;-499;1
1793;-499;1
1793;-499;1
1793;-458;1
1793;-514;1
1793;-507;1
1793;-526;1
1793;-508;1
1842;-454;1
1842;-445;1
1842;-505;1
1842;-495;1
1842;-455;1
1842;-451;1
1842;-492;1
1842;-492;1
1842;-492;1
1842;-492;1
1842;-492;1
1842;-492;1
1842;-492;1
1842;-492;1
1842;-492;1
1842;-492;1
1842;-492;1
1842;-492;1
1842;-492;1
1842;-470;1
1842;-537;1
1842;-472;1
1842;-477;1
1842;-532;1
1842;-483;1
1842;-529;1
1842;-533;1
1842;-515;1
1842;-498;1
1842;-537;1
1842;-509;1
1842;-538;1
1842;-529;1
1842;-511;1
1842;-502;1
1842;-513;1
1842;-461;1
1842;-458;1
1842;-511;1
1842;-497;1
1842;-511;1
1842;-505;1
1842;-445;1
1842;-445;1
1842;-504;1
1842;-495;1
1842;-520;1
1842;-499;1
1842;-519;1
1842;-493;1
1842;-514;1
1842;-490;1
1842;-520;1
1842;-493;1
1842;-513;1
1842;-493;1
1842;-511;1
1842;-508;1
1842;-522;1
1842;-513;1
1895;-548;1
1895;-476;1
1895;-523;1
1895;-506;1
1895;-483;1
1895;-529;1
1895;-487;1
1895;-522;1
1895;-521;1
1895;-502;1
1895;-482;1
1895;-516;1
1895;-488;1
1895;-517;1
1895;-517;1
1895;-506;1
1895;-499;1
1895;-522;1
1895;-462;1
1895;-457;1
1895;-523;1
1895;-504;1
1895;-462;1
1895;-522;1
1895;-506;1
1895;-448;1
1895;-503;1
1895;-489;1
1895;-514;1
1895;-498;1
1895;-501;1
1895;-501;1
1895;-501;1
1895;-501;1
1895;-501;1
1895;-501;1
1895;-501;1
1895;-501;1
1895;-501;1
1895;-501;1
1895;-501;1
1895;-501;1
1895;-501;1
1895;-490;1
1895;-507;1
1895;-494;1
1895;-522;1
1895;-513;1
1895;-549;1
1895;-472;1
1895;-510;1
1895;-496;1
1895;-473;1
1895;-530;1
1946;-491;1
1946;-533;1
1946;-536;1
1946;-504;1
1946;-485;1
1946;-523;1
1946;-460;1
1946;-455;1
1946;-517;1
1946;-499;1
1946;-501;1
1946;-521;1
1946;-463;1
1946;-447;1
1946;-508;1
1946;-490;1
1946;-448;1
1946;-502;1
1946;-493;1
1946;-449;1
1946;-505;1
1946;-493;1
1946;-510;1
1946;-490;1
1946;-526;1
1946;-526;1
1946;-526;1
1946;-526;1
1946;-526;1
1946;-526;1
1946;-526;1
1946;-526;1
1946;-526;1
1946;-526;1
1946;-526;1
1946;-526;1
1946;-526;1
1946;-496;1
1946;-518;1
1946;-500;1
1946;-471;1
1946;-540;1
1946;-480;1
1946;-481;1
1946;-537;1
1946;-461;1
1946;-447;1
1946;-464;1
1946;-513;1
1946;-456;1
1946;-508;1
1946;-486;1
1946;-478;1
1946;-517;1
1946;-494;1
1946;-522;1
1946;-522;1
1946;-510;1
1946;-509;1
1946;-523;1
2001;-469;1
2001;-464;1
2001;-523;1
2001;-495;1
2001;-514;1
2001;-508;1
2001;-517;1
2001;-508;1
2001;-511;1
2001;-507;1
2001;-530;1
2001;-504;1
2001;-539;1
2001;-505;1
2001;-529;1
2001;-514;1
2001;-534;1
2001;-515;1
2001;-538;1
2001;-517;1
2001;-540;1
2001;-530;1
2001;-552;1
2001;-498;1
2001;-550;1
2001;-481;1
2001;-531;1
2001;-513;1
2001;-495;1
2001;-550;1
2001;-499;1
2001;-539;1
2001;-533;1
2001;-519;1
2001;-500;1
2001;-540;1
2001;-516;1
2001;-516;1
2001;-516;1
2001;-516;1
2001;-516;1
2001;-516;1
2001;-516;1
2001;-516;1
2001;-516;1
2001;-516;1
2001;-516;1
2001;-516;1
2001;-516;1
2001;-521;1
2001;-535;1
2001;-513;1
2001;-465;1
2001;-521;1
2054;-535;1
2054;-535;1
2054;-535;1
2054;-535;1
2054;-535;1
2054;-535;1
2054;-535;1
2054;-535;1
2054;-535;1
2054;-535;1
2054;-535;1
2054;-535;1
2054;-535;1
2054;-511;1
2054;-537;1
2054;-503;1
2054;-462;1
2054;-530;1
2054;-505;1
2054;-530;1
2054;-511;1
2054;-468;1
2054;-479;1
2054;-531;1
2054;-486;1
2054;-542;1
2054;-544;1
2054;-514;1
2054;-486;1
2054;-535;1
2054;-491;1
2054;-539;1
2054;-542;1
2054;-516;1
2054;-502;1
2054;-540;1
2054;-471;1
2054;-465;1
2054;-525;1
2054;-509;1
2054;-467;1
2054;-507;1
2054;-508;1
2054;-457;1
2054;-512;1
2054;-499;1
2054;-455;1
2054;-511;1
2054;-501;1
2054;-454;1
2054;-500;1
2054;-509;1
2054;-459;1
2054;-516;1
2054;-497;1
2054;-455;1
2054;-522;1
2054;-501;1
2054;-453;1
2054;-455;1
2107;-512;1
2107;-491;1
2107;-514;1
2107;-508;1
2107;-537;1
2107;-484;1
2107;-535;1
2107;-467;1
2107;-519;1
2107;-540;1
2107;-555;1
2107;-504;1
2107;-548;1
2107;-482;1
2107;-536;1
2107;-518;1
2107;-510;1
2107;-538;1
2107;-513;1
2107;-543;1
2107;-535;1
2107;-515;1
2107;-519;1
2107;-528;1
2107;-474;1
2107;-465;1
2107;-524;1
2107;-509;1
2107;-520;1
2107;-513;1
2107;-531;1
2107;-516;1
2107;-525;1
2107;-518;1
2107;-535;1
2107;-508;1
2107;-458;1
2107;-456;1
2107;-520;1
2107;-505;1
2107;-466;1
2107;-459;1
2107;-524;1
2107;-498;1
2107;-522;1
2107;-500;1
2107;-452;1
2107;-467;1
2107;-526;1
2107;-470;1
2107;-516;1
2107;-497;1
2107;-479;1
2107;-526;1
2163;-492;1
2163;-529;1
2163;-530;1
2163;-512;1
2163;-505;1
2163;-538;1
2163;-508;1
2163;-525;1
2163;-529;1
2163;-509;1
2163;-463;1
2163;-502;1
2163;-521;1
2163;-521;1
2163;-521;1
2163;-521;1
2163;-521;1
2163;-521;1
2163;-521;1
2163;-521;1
2163;-521;1
2163;-521;1
2163;-521;1
2163;-521;1
2163;-521;1
2163;-497;1
2163;-513;1
2163;-504;1
2163;-460;1
2163;-520;1
2163;-495;1
2163;-449;1
2163;-502;1
2163;-491;1
2163;-454;1
2163;-514;1
2163;-489;1
2163;-518;1
2163;-507;1
2163;-536;1
2163;-487;1
2163;-540;1
2163;-479;1
2163;-468;1
2163;-526;1
2163;-510;1
2163;-467;1
2163;-499;1
2163;-536;1
2163;-467;1
2163;-519;1
2163;-503;1
2163;-456;1
2163;-492;1
2163;-515;1
2163;-460;1
2163;-515;1
2163;-497;1
2163;-508;1
2163;-510;1
2214;-516;1
2214;-513;1
2214;-529;1
2214;-505;1
2214;-467;1
2214;-527;1
2214;-511;1
2214;-465;1
2214;-514;1
2214;-504;1
2214;-524;1
2214;-500;1
2214;-458;1
2214;-459;1
2214;-514;1
2214;-496;1
2214;-517;1
2214;-489;1
2214;-511;1
2214;-484;1
2214;-509;1
2214;-508;1
2214;-465;1
2214;-525;1
2214;-483;1
2214;-534;1
2214;-530;1
2214;-507;1
2214;-455;1
2214;-476;1
2214;-527;1
2214;-455;1
2214;-513;1
2214;-495;1
2214;-452;1
2214;-484;1
2214;-501;1
2214;-501;1
2214;-501;1
2214;-501;1
2214;-501;1
2214;-501;1
2214;-501;1
2214;-501;1
2214;-501;1
2214;-501;1
2214;-501;1
2214;-501;1
2214;-501;1
2214;-496;1
2214;-508;1
2214;-497;1
2214;-519;1
2214;-501;1
2267;-521;1
2267;-496;1
2267;-513;1
2267;-506;1
2267;-522;1
2267;-503;1
2267;-527;1
2267;-511;1
2267;-525;1
2267;-511;1
2267;-457;1
2267;-517;1
2267;-495;1
2267;-466;1
2267;-533;1
2267;-463;1
2267;-469;1
2267;-536;1
2267;-485;1
2267;-539;1
2267;-543;1
2267;-552;1
2267;-559;1
2267;-513;1
2267;-548;1
2267;-479;1
2267;-525;1
2267;-514;1
2267;-505;1
2267;-538;1
2267;-473;1
2267;-459;1
2267;-520;1
2267;-516;1
2267;-528;1
2267;-536;1
2267;-466;1
2267;-466;1
2267;-466;1
2267;-466;1
2267;-466;1
2267;-466;1
2267;-466;1
2267;-466;1
2267;-466;1
2267;-466;1
2267;-466;1
2267;-466;1
2267;-466;1
2267;-405;1
2267;-451;1
2267;-449;1
2267;-491;1
2267;-486;1
2267;-471;1
2267;-493;1
2267;-576;1
2267;-605;1
2267;-597;1
2267;-631;1
2321;-720;1
2321;-714;1
2321;-762;1
2321;-779;1
2321;-825;1
2321;-790;1
2321;-855;1
2321;-792;1
2321;-848;1
2321;-836;1
2321;-744;1
2321;-655;1
2321;-643;1
2321;-643;1
2321;-643;1
2321;-643;1
2321;-643;1
2321;-643;1
2321;-643;1
2321;-643;1
2321;-643;1
2321;-643;1
2321;-643;1
2321;-643;1
2321;-643;1
2321;-637;1
2321;-607;1
2321;-564;1
2321;-484;1
2321;-487;1
2321;-222;1
2321;-222;1
2321;-222;1
2321;-222;1
2321;-222;1
2321;-222;1
2321;-222;1
2321;-222;1
2321;-222;1
2321;-222;1
2321;-222;1
2321;-222;1
2321;-222;1
2321;-271;1
2321;-341;1
2321;-370;1
2321;-399;1
2321;-401;1
2321;-363;1
2321;-362;1
2321;-440;1
2321;-452;1
2321;-413;1
2321;-411;1
2321;-550;1
2321;-505;1
2321;-518;1
2321;-529;1
2321;-493;1
2321;-513;1
2374;-573;1
2374;-501;1
2374;-551;1
2374;-542;1
2374;-514;1
2374;-561;1
2374;-523;1
2374;-523;1
2374;-523;1
2374;-523;1
2374;-523;1
2374;-523;1
2374;-523;1
2374;-523;1
2374;-523;1
2374;-523;1
2374;-523;1
2374;-523;1
2374;-523;1
2374;-503;1
2374;-483;1
2374;-542;1
2374;-499;1
2374;-545;1
2374;-559;1
2374;-510;1
2374;-567;1
2374;-557;1
2374;-493;1
2374;-559;1
2374;-548;1
2374;-499;1
2374;-626;1
2374;-590;1
2374;-599;1
2374;-584;1
2374;-536;1
2374;-536;1
2374;-536;1
2374;-536;1
2374;-536;1
2374;-536;1
2374;-536;1
2374;-536;1
2374;-536;1
2374;-536;1
2374;-536;1
2374;-536;1
2374;-536;1
2374;-528;1
2374;-585;1
2374;-578;1
2374;-541;1
2374;-597;1
2374;-632;1
2374;-642;1
2374;-765;1
2374;-692;1
2374;-639;1
2374;-665;1
2374;-571;1
2374;-540;1
2374;-589;1
2374;-561;1
2374;-548;1
2374;-565;1
2425;-550;1
2425;-570;1
2425;-564;1
2425;-543;1
2425;-551;1
2425;-548;1
2425;-548;1
2425;-539;1
2425;-553;1
2425;-530;1
2425;-548;1
2425;-522;1
2425;-480;1
2425;-465;1
2425;-510;1
2425;-510;1
2425;-523;1
2425;-507;1
2425;-519;1
2425;-519;1
2425;-519;1
2425;-519;1
2425;-519;1
2425;-519;1
2425;-519;1
2425;-519;1
2425;-519;1
2425;-519;1
2425;-519;1
2425;-519;1
2425;-519;1
2425;-549;1
2425;-477;1
2425;-463;1
2425;-477;1
2425;-527;1
2425;-485;1
2425;-529;1
2425;-526;1
2425;-497;1
2425;-485;1
2425;-519;1
2425;-489;1
2425;-523;1
2425;-516;1
2425;-500;1
2425;-500;1
2425;-529;1
2425;-461;1
2425;-454;1
2425;-514;1
2425;-494;1
2425;-516;1
2425;-509;1
2479;-447;1
2479;-435;1
2479;-496;1
2479;-486;1
2479;-506;1
2479;-484;1
2479;-506;1
2479;-486;1
2479;-500;1
2479;-493;1
2479;-517;1
2479;-494;1
2479;-447;1
2479;-447;1
2479;-511;1
2479;-496;1
2479;-519;1
2479;-498;1
2479;-513;1
2479;-493;1
2479;-513;1
2479;-499;1
2479;-473;1
2479;-530;1
2479;-491;1
2479;-527;1
2479;-514;1
2479;-509;1
2479;-482;1
2479;-529;1
2479;-496;1
2479;-526;1
2479;-529;1
2479;-514;1
2479;-468;1
2479;-510;1
2479;-524;1
2479;-460;1
2479;-513;1
2479;-495;1
2479;-456;1
2479;-507;1
2479;-509;1
2479;-465;1
2479;-511;1
2479;-492;1
2479;-448;1
2479;-512;1
2529;-532;1
2529;-532;1
2529;-532;1
2529;-532;1
2529;-532;1
2529;-532;1
2529;-532;1
2529;-532;1
2529;-532;1
2529;-532;1
2529;-532;1
2529;-532;1
2529;-532;1
2529;-516;1
2529;-528;1
2529;-508;1
2529;-527;1
2529;-521;1
2529;-554;1
2529;-487;1
2529;-527;1
2529;-504;1
2529;-462;1
2529;-478;1
2529;-534;1
2529;-462;1
2529;-515;1
2529;-501;1
2529;-468;1
2529;-494;1
2529;-533;1
2529;-467;1
2529;-520;1
2529;-500;1
2529;-503;1
2529;-525;1
2529;-460;1
2529;-453;1
2529;-521;1
2529;-499;1
2529;-510;1
2529;-506;1
2529;-514;1
2529;-504;1
2529;-514;1
2529;-509;1
2529;-527;1
2529;-509;1
2529;-526;1
2529;-526;1
2529;-526;1
2529;-526;1
2529;-526;1
2529;-526;1
2529;-526;1
2529;-526;1
2529;-526;1
2529;-526;1
2529;-526;1
2529;-526;1
2529;-526;1
2529;-500;1
2529;-524;1
2529;-506;1
2529;-458;1
2529;-467;1
2529;-537;1
2529;-480;1
2529;-517;1
2529;-500;1
2529;-461;1
2529;-484;1
2585;-536;1
2585;-469;1
2585;-523;1
2585;-506;1
2585;-492;1
2585;-537;1
2585;-471;1
2585;-466;1
2585;-521;1
2585;-501;1
2585;-507;1
2585;-520;1
2585;-466;1
2585;-456;1
2585;-518;1
2585;-508;1
2585;-456;1
2585;-505;1
2585;-504;1
2585;-456;1
2585;-519;1
2585;-501;1
2585;-525;1
2585;-506;1
2585;-460;1
2585;-460;1
2585;-515;1
2585;-503;1
2585;-522;1
2585;-495;1
2585;-516;1
2585;-502;1
2585;-526;1
2585;-506;1
2585;-455;1
2585;-511;1
2585;-487;1
2585;-460;1
2585;-525;1
2585;-465;1
2585;-447;1
2585;-469;1
2585;-488;1
2585;-488;1
2585;-488;1
2585;-488;1
2585;-488;1
2585;-488;1
2585;-488;1
2585;-488;1
2585;-488;1
2585;-488;1
2585;-488;1
2585;-488;1
2585;-488;1
2585;-518;1
2585;-524;1
2585;-496;1
2585;-498;1
2585;-511;1
2637;-447;1
2637;-445;1
2637;-506;1
2637;-492;1
2637;-444;1
2637;-496;1
2637;-493;1
2637;-445;1
2637;-499;1
2637;-492;1
2637;-519;1
2637;-492;1
2637;-445;1
2637;-445;1
2637;-500;1
2637;-496;1
2637;-445;1
2637;-507;1
2637;-483;1
2637;-514;1
2637;-484;1
2637;-442;1
2637;-442;1
2637;-456;1
2637;-522;1
2637;-467;1
2637;-514;1
2637;-492;1
2637;-453;1
2637;-477;1
2637;-530;1
2637;-464;1
2637;-513;1
2637;-498;1
2637;-489;1
2637;-519;1
2637;-454;1
2637;-454;1
2637;-511;1
2637;-497;1
2637;-499;1
2637;-513;1
2637;-507;1
2637;-521;1
2637;-530;1
2637;-517;1
2637;-525;1
2637;-522;1
2688;-536;1
2688;-521;1
2688;-534;1
2688;-517;1
2688;-543;1
2688;-516;1
2688;-474;1
2688;-468;1
2688;-518;1
2688;-517;1
2688;-537;1
2688;-510;1
2688;-489;1
2688;-489;1
2688;-489;1
2688;-489;1
2688;-489;1
2688;-489;1
2688;-489;1
2688;-489;1
2688;-489;1
2688;-489;1
2688;-489;1
2688;-489;1
2688;-489;1
2688;-493;1
2688;-552;1
2688;-488;1
2688;-465;1
2688;-485;1
2688;-538;1
2688;-470;1
2688;-522;1
2688;-505;1
2688;-495;1
2688;-532;1
2688;-498;1
2688;-530;1
2688;-528;1
2688;-514;1
2688;-503;1
2688;-523;1
2688;-465;1
2688;-457;1
2688;-523;1
2688;-505;1
2688;-517;1
2688;-513;1
2688;-467;1
2688;-458;1
2688;-514;1
2688;-496;1
2688;-456;1
2688;-522;1
2740;-512;1
2740;-512;1
2740;-512;1
2740;-512;1
2740;-512;1
2740;-512;1
2740;-512;1
2740;-512;1
2740;-512;1
2740;-512;1
2740;-512;1
2740;-512;1
2740;-512;1
2740;-498;1
2740;-521;1
2740;-503;1
2740;-520;1
2740;-503;1
2740;-460;1
2740;-456;1
2740;-520;1
2740;-496;1
2740;-476;1
2740;-526;1
2740;-484;1
2740;-534;1
2740;-535;1
2740;-506;1
2740;-495;1
2740;-529;1
2740;-465;1
2740;-455;1
2740;-510;1
2740;-503;1
2740;-503;1
2740;-523;1
2740;-518;1
2740;-527;1
2740;-531;1
2740;-513;1
2740;-521;1
2740;-514;1
2740;-526;1
2740;-512;1
2740;-532;1
2740;-510;1
2740;-531;1
2740;-506;1
2740;-466;1
2740;-464;1
2740;-517;1
2740;-509;1
2740;-462;1
2740;-520;1
2740;-501;1
2740;-534;1
2740;-508;1
2740;-529;1
2740;-521;1
2740;-554;1
2796;-490;1
2796;-478;1
2796;-533;1
2796;-514;1
2796;-472;1
2796;-485;1
2796;-533;1
2796;-476;1
2796;-524;1
2796;-509;1
2796;-463;1
2796;-495;1
2796;-530;1
2796;-468;1
2796;-529;1
2796;-509;1
2796;-516;1
2796;-525;1
2796;-465;1
2796;-459;1
2796;-522;1
2796;-506;1
2796;-459;1
2796;-511;1
2796;-528;1
2796;-528;1
2796;-528;1
2796;-528;1
2796;-528;1
2796;-528;1
2796;-528;1
2796;-528;1
2796;-528;1
2796;-528;1
2796;-528;1
2796;-528;1
2796;-528;1
2796;-506;1
2796;-521;1
2796;-513;1
2796;-474;1
2796;-525;1
2796;-507;1
2796;-534;1
2796;-509;1
2796;-474;1
2796;-538;1
2796;-492;1
2796;-543;1
2796;-472;1
2796;-521;1
2796;-507;1
2796;-487;1
2796;-541;1
2796;-503;1
2796;-541;1
2796;-537;1
2796;-519;1
2796;-508;1
2796;-543;1
2849;-481;1
2849;-469;1
2849;-528;1
2849;-510;1
2849;-517;1
2849;-524;1
2849;-467;1
2849;-455;1
2849;-517;1
2849;-493;1
2849;-458;1
2849;-523;1
2849;-502;1
2849;-454;1
2849;-514;1
2849;-497;1
2849;-523;1
2849;-499;1
2849;-530;1
2849;-502;1
2849;-518;1
2849;-516;1
2849;-466;1
2849;-460;1
2849;-531;1
2849;-531;1
2849;-531;1
2849;-531;1
2849;-531;1
2849;-531;1
2849;-531;1
2849;-531;1
2849;-531;1
2849;-531;1
2849;-531;1
2849;-531;1
2849;-531;1
2849;-471;1
2849;-519;1
2849;-502;1
2849;-488;1
2849;-537;1
2849;-515;1
2849;-515;1
2849;-515;1
2849;-515;1
2849;-515;1
2849;-515;1
2849;-515;1
2849;-515;1
2849;-515;1
2849;-515;1
2849;-515;1
2849;-515;1
2849;-515;1
2849;-542;1
2849;-539;1
2849;-515;1
2849;-520;1
2849;-536;1
2904;-477;1
2904;-478;1
2904;-527;1
2904;-513;1
2904;-466;1
2904;-528;1
2904;-521;1
2904;-465;1
2904;-520;1
2904;-509;1
2904;-471;1
2904;-526;1
2904;-506;1
2904;-471;1
2904;-525;1
2904;-515;1
2904;-539;1
2904;-510;1
2904;-534;1
2904;-512;1
2904;-537;1
2904;-514;1
2904;-465;1
2904;-485;1
2904;-544;1
2904;-479;1
2904;-533;1
2904;-508;1
2904;-495;1
2904;-548;1
2904;-513;1
2904;-553;1
2904;-543;1
2904;-524;1
2904;-512;1
2904;-543;1
2904;-517;1
2904;-543;1
2904;-543;1
2904;-525;1
2904;-526;1
2904;-534;1
2904;-479;1
2904;-477;1
2904;-528;1
2904;-508;1
2904;-474;1
2904;-529;1
2904;-515;1
2904;-476;1
2904;-535;1
2904;-511;1
2904;-474;1
2904;-540;1
2956;-511;1
2956;-475;1
2956;-531;1
2956;-517;1
2956;-478;1
2956;-537;1
2956;-514;1
2956;-543;1
2956;-519;1
2956;-494;1
2956;-560;1
2956;-504;1
2956;-554;1
2956;-494;1
2956;-535;1
2956;-523;1
2956;-503;1
2956;-550;1
2956;-488;1
2956;-474;1
2956;-532;1
2956;-523;1
2956;-510;1
2956;-541;1
2956;-472;1
2956;-461;1
2956;-525;1
2956;-508;1
2956;-514;1
2956;-520;1
2956;-472;1
2956;-468;1
2956;-528;1
2956;-509;1
2956;-452;1
2956;-515;1
2956;-500;1
2956;-459;1
2956;-511;1
2956;-498;1
2956;-523;1
2956;-495;1
2956;-524;1
2956;-524;1
2956;-524;1
2956;-524;1
2956;-524;1
2956;-524;1
2956;-524;1
2956;-524;1
2956;-524;1
2956;-524;1
2956;-524;1
2956;-524;1
2956;-524;1
2956;-504;1
2956;-521;1
2956;-512;1
2956;-469;1
2956;-488;1
3012;-546;1
3012;-546;1
3012;-546;1
3012;-546;1
3012;-546;1
3012;-546;1
3012;-546;1
3012;-546;1
3012;-546;1
3012;-546;1
3012;-546;1
3012;-546;1
3012;-546;1
3012;-474;1
3012;-533;1
3012;-511;1
3012;-508;1
3012;-537;1
3012;-518;1
3012;-536;1
3012;-540;1
3012;-515;1
3012;-469;1
3012;-522;1
3012;-522;1
3012;-474;1
3012;-527;1
3012;-516;1
3012;-538;1
3012;-518;1
3012;-475;1
3012;-475;1
3012;-475;1
3012;-475;1
3012;-475;1
3012;-475;1
3012;-475;1
3012;-475;1
3012;-475;1
3012;-475;1
3012;-475;1
3012;-475;1
3012;-475;1
3012;-469;1
3012;-523;1
3012;-518;1
3012;-541;1
3012;-514;1
3012;-471;1
3012;-467;1
3012;-530;1
3012;-513;1
3012;-485;1
3012;-551;1
3012;-497;1
3012;-551;1
3012;-555;1
3012;-526;1
3012;-507;1
3012;-559;1
3012;-532;1
3012;-563;1
3012;-565;1
3012;-543;1
3012;-524;1
3012;-535;1
3063;-446;1
3063;-424;1
3063;-464;1
3063;-445;1
3063;-465;1
3063;-488;1
3063;-448;1
3063;-473;1
3063;-554;1
3063;-567;1
3063;-570;1
3063;-680;1
3063;-699;1
3063;-681;1
3063;-758;1
3063;-765;1
3063;-748;1
3063;-832;1
3063;-828;1
3063;-812;1
3063;-868;1
3063;-873;1
3063;-747;1
3063;-668;1
3063;-759;1
3063;-778;1
3063;-765;1
3063;-724;1
3063;-774;1
3063;-719;1
3063;-741;1
3063;-633;1
3063;-647;1
3063;-601;1
3063;-527;1
3063;-500;1
3063;-298;1
3063;-298;1
3063;-298;1
3063;-298;1
3063;-298;1
3063;-298;1
3063;-298;1
3063;-298;1
3063;-298;1
3063;-298;1
3063;-298;1
3063;-298;1
3063;-298;1
3063;-247;1
3063;-327;1
3063;-338;1
3063;-356;1
3063;-393;1
3063;-349;1
3063;-350;1
3063;-428;1
3063;-430;1
3063;-532;1
3063;-486;1
3119;-437;1
3119;-426;1
3119;-423;1
3119;-492;1
3119;-446;1
3119;-511;1
3119;-510;1
3119;-467;1
3119;-516;1
3119;-522;1
3119;-479;1
3119;-523;1
3119;-502;1
3119;-502;1
3119;-502;1
3119;-502;1
3119;-502;1
3119;-502;1
3119;-502;1
3119;-502;1
3119;-502;1
3119;-502;1
3119;-502;1
3119;-502;1
3119;-502;1
3119;-509;1
3119;-558;1
3119;-544;1
3119;-529;1
3119;-592;1
3119;-638;1
3119;-638;1
3119;-638;1
3119;-638;1
3119;-638;1
3119;-638;1
3119;-638;1
3119;-638;1
3119;-638;1
3119;-638;1
3119;-638;1
3119;-638;1
3119;-638;1
3119;-535;1
3119;-582;1
3119;-570;1
3119;-495;1
3119;-582;1
3119;-507;1
3119;-496;1
3119;-551;1
3119;-549;1
3119;-575;1
3119;-571;1
3119;-518;1
3119;-509;1
3119;-567;1
3119;-567;1
3119;-663;1
3119;-595;1
3169;-608;1
3169;-586;1
3169;-639;1
3169;-736;1
3169;-608;1
3169;-645;1
3169;-591;1
3169;-544;1
3169;-594;1
3169;-532;1
3169;-580;1
3169;-525;1
3169;-572;1
3169;-501;1
3169;-550;1
3169;-527;1
3169;-487;1
3169;-519;1
3169;-552;1
3169;-484;1
3169;-536;1
3169;-515;1
3169;-475;1
3169;-512;1
3169;-526;1
3169;-465;1
3169;-515;1
3169;-500;1
3169;-506;1
3169;-510;1
3169;-462;1
3169;-462;1
3169;-462;1
3169;-462;1
3169;-462;1
3169;-462;1
3169;-462;1
3169;-462;1
3169;-462;1
3169;-462;1
3169;-462;1
3169;-462;1
3169;-462;1
3169;-464;1
3169;-527;1
3169;-508;1
3169;-525;1
3169;-504;1
3169;-455;1
3169;-455;1
3169;-455;1
3169;-455;1
3169;-455;1
3169;-455;1
3169;-455;1
3169;-455;1
3169;-455;1
3169;-455;1
3169;-455;1
3169;-455;1
3169;-455;1
3169;-444;1
3169;-511;1
3169;-515;1
3169;-546;1
3169;-501;1
3220;-546;1
3220;-479;1
3220;-534;1
3220;-513;1
3220;-498;1
3220;-545;1
3220;-470;1
3220;-462;1
3220;-517;1
3220;-506;1
3220;-499;1
3220;-527;1
3220;-503;1
3220;-526;1
3220;-529;1
3220;-509;1
3220;-519;1
3220;-526;1
3220;-532;1
3220;-527;1
3220;-543;1
3220;-525;1
3220;-485;1
3220;-543;1
3220;-521;1
3220;-475;1
3220;-527;1
3220;-504;1
3220;-532;1
3220;-514;1
3220;-518;1
3220;-518;1
3220;-518;1
3220;-518;1
3220;-518;1
3220;-518;1
3220;-518;1
3220;-518;1
3220;-518;1
3220;-518;1
3220;-518;1
3220;-518;1
3220;-518;1
3220;-500;1
3220;-524;1
3220;-512;1
3220;-472;1
3220;-483;1
3272;-546;1
3272;-472;1
3272;-527;1
3272;-503;1
3272;-490;1
3272;-531;1
3272;-507;1
3272;-539;1
3272;-530;1
3272;-512;1
3272;-507;1
3272;-528;1
3272;-514;1
3272;-536;1
3272;-544;1
3272;-527;1
3272;-485;1
3272;-537;1
3272;-534;1
3272;-486;1
3272;-539;1
3272;-517;1
3272;-547;1
3272;-518;1
3272;-536;1
3272;-516;1
3272;-533;1
3272;-512;1
3272;-464;1
3272;-526;1
3272;-504;1
3272;-464;1
3272;-519;1
3272;-517;1
3272;-470;1
3272;-475;1
3272;-544;1
3272;-486;1
3272;-531;1
3272;-531;1
3272;-554;1
3272;-495;1
3272;-546;1
3272;-476;1
3272;-525;1
3272;-505;1
3272;-487;1
3272;-523;1
3272;-455;1
3272;-448;1
3272;-507;1
3272;-498;1
3272;-498;1
3272;-515;1
3272;-462;1
3272;-452;1
3272;-516;1
3272;-495;1
3272;-511;1
3272;-512;1
3327;-457;1
3327;-447;1
3327;-507;1
3327;-488;1
3327;-511;1
3327;-497;1
3327;-515;1
3327;-489;1
3327;-511;1
3327;-493;1
3327;-446;1
3327;-510;1
3327;-491;1
3327;-464;1
3327;-513;1
3327;-508;1
3327;-530;1
3327;-516;1
3327;-546;1
3327;-476;1
3327;-526;1
3327;-502;1
3327;-461;1
3327;-481;1
3327;-536;1
3327;-469;1
3327;-514;1
3327;-491;1
3327;-480;1
3327;-517;1
3327;-455;1
3327;-447;1
3327;-506;1
3327;-493;1
3327;-496;1
3327;-517;1
3327;-461;1
3327;-447;1
3327;-502;1
3327;-490;1
3327;-507;1
3327;-502;1
3327;-452;1
3327;-445;1
3327;-503;1
3327;-496;1
3327;-514;1
3327;-486;1
3377;-514;1
3377;-492;1
3377;-517;1
3377;-494;1
3377;-521;1
3377;-501;1
3377;-527;1
3377;-506;1
3377;-523;1
3377;-515;1
3377;-529;1
3377;-518;1
3377;-555;1
3377;-493;1
3377;-532;1
3377;-514;1
3377;-459;1
3377;-486;1
3377;-530;1
3377;-468;1
3377;-517;1
3377;-504;1
3377;-464;1
3377;-490;1
3377;-515;1
3377;-515;1
3377;-515;1
3377;-515;1
3377;-515;1
3377;-515;1
3377;-515;1
3377;-515;1
3377;-515;1
3377;-515;1
3377;-515;1
3377;-515;1
3377;-515;1
3377;-530;1
3377;-537;1
3377;-515;1
3377;-462;1
3377;-522;1
3377;-517;1
3377;-466;1
3377;-521;1
3377;-514;1
3377;-538;1
3377;-517;1
3377;-470;1
3377;-470;1
3377;-531;1
3377;-509;1
3377;-471;1
3377;-528;1
3429;-511;1
3429;-534;1
3429;-505;1
3429;-465;1
3429;-448;1
3429;-528;1
3429;-504;1
3429;-544;1
3429;-545;1
3429;-548;1
3429;-562;1
3429;-507;1
3429;-552;1
3429;-485;1
3429;-531;1
3429;-510;1
3429;-472;1
3429;-503;1
3429;-542;1
3429;-474;1
3429;-538;1
3429;-514;1
3429;-518;1
3429;-529;1
3429;-466;1
3429;-458;1
3429;-522;1
3429;-508;1
3429;-520;1
3429;-510;1
3429;-458;1
3429;-454;1
3429;-513;1
3429;-508;1
3429;-533;1
3429;-508;1
3429;-475;1
3429;-474;1
3429;-529;1
3429;-510;1
3429;-533;1
3429;-512;1
3429;-551;1
3429;-551;1
3429;-551;1
3429;-551;1
3429;-551;1
3429;-551;1
3429;-551;1
3429;-551;1
3429;-551;1
3429;-551;1
3429;-551;1
3429;-551;1
3429;-551;1
3429;-480;1
3429;-526;1
3429;-511;1
3429;-491;1
3429;-543;1
3482;-503;1
3482;-550;1
3482;-548;1
3482;-525;1
3482;-511;1
3482;-544;1
3482;-511;1
3482;-541;1
3482;-547;1
3482;-524;1
3482;-524;1
3482;-529;1
3482;-476;1
3482;-476;1
3482;-476;1
3482;-476;1
3482;-476;1
3482;-476;1
3482;-476;1
3482;-476;1
3482;-476;1
3482;-476;1
3482;-476;1
3482;-476;1
3482;-476;1
3482;-472;1
3482;-527;1
3482;-513;1
3482;-543;1
3482;-522;1
3482;-470;1
3482;-466;1
3482;-528;1
3482;-505;1
3482;-467;1
3482;-463;1
3482;-533;1
3482;-506;1
3482;-518;1
3482;-505;1
3482;-461;1
3482;-476;1
3482;-536;1
3482;-475;1
3482;-524;1
3482;-502;1
3482;-489;1
3482;-546;1
3482;-493;1
3482;-537;1
3482;-537;1
3482;-515;1
3482;-507;1
3482;-541;1
3538;-511;1
3538;-541;1
3538;-539;1
3538;-516;1
3538;-474;1
3538;-512;1
3538;-473;1
3538;-473;1
3538;-473;1
3538;-473;1
3538;-473;1
3538;-473;1
3538;-473;1
3538;-473;1
3538;-473;1
3538;-473;1
3538;-473;1
3538;-473;1
3538;-473;1
3538;-468;1
3538;-530;1
3538;-511;1
3538;-459;1
3538;-528;1
3538;-498;1
3538;-498;1
3538;-498;1
3538;-498;1
3538;-498;1
3538;-498;1
3538;-498;1
3538;-498;1
3538;-498;1
3538;-498;1
3538;-498;1
3538;-498;1
3538;-498;1
3538;-522;1
3538;-510;1
3538;-534;1
3538;-534;1
3538;-562;1
3538;-488;1
3538;-470;1
3538;-534;1
3538;-518;1
3538;-477;1
3538;-500;1
3538;-548;1
3538;-475;1
3538;-525;1
3538;-511;1
3538;-505;1
3538;-538;1
3538;-470;1
3538;-456;1
3538;-517;1
3538;-505;1
3538;-456;1
3538;-509;1
3538;-514;1
3538;-462;1
3538;-526;1
3538;-505;1
3538;-531;1
3538;-515;1
3589;-464;1
3589;-467;1
3589;-517;1
3589;-495;1
3589;-461;1
3589;-526;1
3589;-496;1
3589;-456;1
3589;-513;1
3589;-494;1
3589;-519;1
3589;-507;1
3589;-463;1
3589;-458;1
3589;-512;1
3589;-506;1
3589;-482;1
3589;-545;1
3589;-492;1
3589;-546;1
3589;-550;1
3589;-521;1
3589;-475;1
3589;-496;1
3589;-536;1
3589;-475;1
3589;-524;1
3589;-508;1
3589;-464;1
3589;-496;1
3589;-526;1
3589;-466;1
3589;-523;1
3589;-507;1
3589;-509;1
3589;-529;1
3589;-519;1
3589;-520;1
3589;-529;1
3589;-512;1
3589;-526;1
3589;-519;1
3589;-454;1
3589;-454;1
3589;-454;1
3589;-454;1
3589;-454;1
3589;-454;1
3589;-454;1
3589;-454;1
3589;-454;1
3589;-454;1
3589;-454;1
3589;-454;1
3589;-454;1
3589;-454;1
3589;-507;1
3589;-508;1
3589;-524;1
3589;-501;1
3644;-460;1
3644;-458;1
3644;-521;1
3644;-502;1
3644;-454;1
3644;-459;1
3644;-531;1
3644;-465;1
3644;-512;1
3644;-498;1
3644;-458;1
3644;-474;1
3644;-520;1
3644;-457;1
3644;-508;1
3644;-496;1
3644;-489;1
3644;-521;1
3644;-449;1
3644;-450;1
3644;-512;1
3644;-492;1
3644;-509;1
3644;-514;1
3644;-454;1
3644;-454;1
3644;-507;1
3644;-497;1
3644;-457;1
3644;-512;1
3644;-493;1
3644;-452;1
3644;-512;1
3644;-493;1
3644;-512;1
3644;-494;1
3644;-455;1
3644;-446;1
3644;-503;1
3644;-493;1
3644;-454;1
3644;-521;1
3644;-495;1
3644;-517;1
3644;-499;1
3644;-468;1
3644;-530;1
3644;-480;1
3644;-536;1
3644;-485;1
3644;-536;1
3644;-492;1
3644;-540;1
3644;-497;1
3695;-464;1
3695;-464;1
3695;-464;1
3695;-464;1
3695;-464;1
3695;-464;1
3695;-464;1
3695;-464;1
3695;-464;1
3695;-464;1
3695;-464;1
3695;-464;1
3695;-464;1
3695;-461;1
3695;-519;1
3695;-500;1
3695;-508;1
3695;-516;1
3695;-458;1
3695;-457;1
3695;-513;1
3695;-503;1
3695;-524;1
3695;-511;1
3695;-460;1
3695;-453;1
3695;-514;1
3695;-501;1
3695;-461;1
3695;-520;1
3695;-499;1
3695;-465;1
3695;-519;1
3695;-513;1
3695;-463;1
3695;-460;1
3695;-528;1
3695;-502;1
3695;-527;1
3695;-519;1
3695;-485;1
3695;-546;1
3695;-499;1
3695;-551;1
3695;-552;1
3695;-527;1
3695;-495;1
3695;-550;1
3695;-512;1
3695;-558;1
3695;-551;1
3695;-536;1
3695;-523;1
3695;-548;1
3751;-527;1
3751;-549;1
3751;-553;1
3751;-528;1
3751;-481;1
3751;-530;1
3751;-541;1
3751;-483;1
3751;-541;1
3751;-517;1
3751;-474;1
3751;-537;1
3751;-521;1
3751;-476;1
3751;-532;1
3751;-516;1
3751;-467;1
3751;-522;1
3751;-509;1
3751;-476;1
3751;-523;1
3751;-509;1
3751;-464;1
3751;-525;1
3751;-503;1
3751;-519;1
3751;-491;1
3751;-451;1
3751;-465;1
3751;-538;1
3751;-491;1
3751;-539;1
3751;-538;1
3751;-521;1
3751;-469;1
3751;-496;1
3751;-536;1
3751;-479;1
3751;-530;1
3751;-516;1
3751;-511;1
3751;-540;1
3751;-471;1
3751;-461;1
3751;-523;1
3751;-506;1
3751;-463;1
3751;-512;1
3751;-517;1
3751;-462;1
3751;-519;1
3751;-505;1
3751;-467;1
3751;-519;1
3802;-506;1
3802;-466;1
3802;-520;1
3802;-507;1
3802;-472;1
3802;-525;1
3802;-509;1
3802;-468;1
3802;-523;1
3802;-503;1
3802;-462;1
3802;-461;1
3802;-526;1
3802;-502;1
3802;-516;1
3802;-513;1
3802;-482;1
3802;-541;1
3802;-493;1
3802;-554;1
3802;-546;1
3802;-556;1
3802;-575;1
3802;-523;1
3802;-559;1
3802;-494;1
3802;-544;1
3802;-530;1
3802;-529;1
3802;-560;1
3802;-540;1
3802;-559;1
3802;-559;1
3802;-535;1
3802;-477;1
3802;-499;1
3802;-484;1
3802;-416;1
3802;-462;1
3802;-464;1
3802;-437;1
3802;-518;1
3802;-518;1
3802;-503;1
3802;-585;1
3802;-609;1
3802;-675;1
3802;-682;1
3853;-722;1
3853;-719;1
3853;-762;1
3853;-762;1
3853;-729;1
3853;-746;1
3853;-822;1
3853;-807;1
3853;-829;1
3853;-752;1
3853;-579;1
3853;-667;1
3853;-743;1
3853;-689;1
3853;-735;1
3853;-743;1
3853;-732;1
3853;-668;1
3853;-672;1
3853;-586;1
3853;-722;1
3853;-631;1
3853;-529;1
3853;-512;1
3853;-349;1
3853;-349;1
3853;-349;1
3853;-349;1
3853;-349;1
3853;-349;1
3853;-349;1
3853;-349;1
3853;-349;1
3853;-349;1
3853;-349;1
3853;-349;1
3853;-349;1
3853;-318;1
3853;-397;1
3853;-398;1
3853;-435;1
3853;-436;1
3853;-542;1
3853;-498;1
3853;-511;1
3853;-512;1
3853;-465;1
3853;-520;1
3853;-558;1
3853;-558;1
3853;-558;1
3853;-558;1
3853;-558;1
3853;-558;1
3853;-558;1
3853;-558;1
3853;-558;1
3853;-558;1
3853;-558;1
3853;-558;1
3853;-558;1
3853;-524;1
3853;-595;1
3853;-530;1
3853;-662;1
3853;-575;1
3904;-622;1
3904;-546;1
3904;-507;1
3904;-577;1
3904;-554;1
3904;-591;1
3904;-560;1
3904;-597;1
3904;-603;1
3904;-588;1
3904;-578;1
3904;-619;1
3904;-550;1
3904;-532;1
3904;-660;1
3904;-593;1
3904;-530;1
3904;-570;1
3904;-507;1
3904;-519;1
3904;-578;1
3904;-574;1
3904;-599;1
3904;-569;1
3904;-508;1
3904;-508;1
3904;-561;1
3904;-549;1
3904;-576;1
3904;-572;1
3904;-672;1
3904;-614;1
3904;-626;1
3904;-598;1
3904;-541;1
3904;-595;1
3904;-672;1
3904;-679;1
3904;-654;1
3904;-620;1
3904;-572;1
3904;-602;1
3904;-546;1
3904;-593;1
3904;-582;1
3904;-541;1
3904;-517;1
3904;-554;1
3957;-526;1
3957;-564;1
3957;-560;1
3957;-534;1
3957;-525;1
3957;-551;1
3957;-492;1
3957;-482;1
3957;-538;1
3957;-518;1
3957;-521;1
3957;-521;1
3957;-519;1
3957;-512;1
3957;-525;1
3957;-508;1
3957;-529;1
3957;-508;1
3957;-463;1
3957;-455;1
3957;-521;1
3957;-506;1
3957;-462;1
3957;-521;1
3957;-500;1
3957;-457;1
3957;-520;1
3957;-498;1
3957;-455;1
3957;-506;1
3957;-493;1
3957;-526;1
3957;-467;1
3957;-468;1
3957;-528;1
3957;-488;1
3957;-528;1
3957;-450;1
3957;-507;1
3957;-492;1
3957;-486;1
3957;-532;1
3957;-494;1
3957;-535;1
3957;-533;1
3957;-512;1
3957;-501;1
3957;-525;1
4008;-459;1
4008;-452;1
4008;-519;1
4008;-500;1
4008;-508;1
4008;-514;1
4008;-531;1
4008;-507;1
4008;-522;1
4008;-502;1
4008;-522;1
4008;-501;1
4008;-530;1
4008;-513;1
4008;-533;1
4008;-515;1
4008;-457;1
4008;-517;1
4008;-502;1
4008;-458;1
4008;-530;1
4008;-515;1
4008;-535;1
4008;-513;1
4008;-528;1
4008;-499;1
4008;-514;1
4008;-511;1
4008;-455;1
4008;-470;1
4008;-528;1
4008;-462;1
4008;-519;1
4008;-509;1
4008;-498;1
4008;-534;1
4008;-502;1
4008;-534;1
4008;-531;1
4008;-524;1
4008;-474;1
4008;-515;1
4008;-523;1
4008;-456;1
4008;-516;1
4008;-501;1
4008;-508;1
4008;-506;1
4008;-519;1
4008;-511;1
4008;-526;1
4008;-510;1
4008;-470;1
4008;-530;1
4064;-516;1
4064;-470;1
4064;-526;1
4064;-509;1
4064;-524;1
4064;-519;1
4064;-530;1
4064;-507;1
4064;-521;1
4064;-506;1
4064;-528;1
4064;-515;1
4064;-546;1
4064;-499;1
4064;-550;1
4064;-483;1
4064;-461;1
4064;-480;1
4064;-548;1
4064;-473;1
4064;-534;1
4064;-518;1
4064;-496;1
4064;-538;1
4064;-464;1
4064;-455;1
4064;-512;1
4064;-496;1
4064;-504;1
4064;-525;1
4064;-463;1
4064;-456;1
4064;-519;1
4064;-506;1
4064;-514;1
4064;-512;1
4064;-521;1
4064;-509;1
4064;-533;1
4064;-515;1
4064;-541;1
4064;-520;1
4064;-460;1
4064;-459;1
4064;-510;1
4064;-504;1
4064;-458;1
4064;-523;1
4064;-504;1
4064;-462;1
4064;-510;1
4064;-496;1
4064;-516;1
4064;-504;1
4114;-549;1
4114;-482;1
4114;-518;1
4114;-518;1
4114;-468;1
4114;-484;1
4114;-536;1
4114;-470;1
4114;-523;1
4114;-508;1
4114;-466;1
4114;-497;1
4114;-539;1
4114;-471;1
4114;-512;1
4114;-493;1
4114;-495;1
4114;-511;1
4114;-503;1
4114;-514;1
4114;-517;1
4114;-506;1
4114;-458;1
4114;-514;1
4114;-514;1
4114;-462;1
4114;-515;1
4114;-500;1
4114;-525;1
4114;-498;1
4114;-525;1
4114;-502;1
4114;-516;1
4114;-494;1
4114;-515;1
4114;-489;1
4114;-522;1
4114;-493;1
4114;-517;1
4114;-497;1
4114;-453;1
4114;-513;1
4114;-511;1
4114;-544;1
4114;-546;1
4114;-555;1
4114;-573;1
4114;-520;1
4167;-556;1
4167;-479;1
4167;-526;1
4167;-503;1
4167;-488;1
4167;-533;1
4167;-469;1
4167;-456;1
4167;-515;1
4167;-498;1
4167;-495;1
4167;-516;1
4167;-516;1
4167;-516;1
4167;-516;1
4167;-516;1
4167;-516;1
4167;-516;1
4167;-516;1
4167;-516;1
4167;-516;1
4167;-516;1
4167;-516;1
4167;-516;1
4167;-516;1
4167;-502;1
4167;-519;1
4167;-500;1
4167;-457;1
4167;-517;1
4167;-487;1
4167;-457;1
4167;-513;1
4167;-496;1
4167;-520;1
4167;-491;1
4167;-449;1
4167;-453;1
4167;-516;1
4167;-496;1
4167;-440;1
4167;-522;1
4167;-501;1
4167;-539;1
4167;-539;1
4167;-518;1
4167;-486;1
4167;-543;1
4167;-502;1
4167;-542;1
4167;-536;1
4167;-515;1
4167;-468;1
4167;-496;1
4222;-532;1
4222;-468;1
4222;-521;1
4222;-506;1
4222;-504;1
4222;-527;1
4222;-517;1
4222;-518;1
4222;-530;1
4222;-513;1
4222;-528;1
4222;-519;1
4222;-533;1
4222;-520;1
4222;-531;1
4222;-507;1
4222;-534;1
4222;-509;1
4222;-535;1
4222;-535;1
4222;-535;1
4222;-535;1
4222;-535;1
4222;-535;1
4222;-535;1
4222;-535;1
4222;-535;1
4222;-535;1
4222;-535;1
4222;-535;1
4222;-535;1
4222;-504;1
4222;-533;1
4222;-513;1
4222;-471;1
4222;-478;1
4222;-547;1
4222;-477;1
4222;-506;1
4222;-510;1
4222;-456;1
4222;-474;1
4222;-522;1
4222;-464;1
4222;-517;1
4222;-503;1
4222;-459;1
4222;-491;1
4222;-524;1
4222;-458;1
4222;-520;1
4222;-506;1
4222;-462;1
4222;-503;1
4222;-516;1
4222;-464;1
4222;-511;1
4222;-498;1
4222;-516;1
4222;-509;1
4278;-453;1
4278;-446;1
4278;-506;1
4278;-494;1
4278;-519;1
4278;-501;1
4278;-458;1
4278;-452;1
4278;-510;1
4278;-496;1
4278;-519;1
4278;-497;1
4278;-523;1
4278;-506;1
4278;-525;1
4278;-500;1
4278;-473;1
4278;-539;1
4278;-485;1
4278;-537;1
4278;-545;1
4278;-527;1
4278;-465;1
4278;-491;1
4278;-532;1
4278;-468;1
4278;-519;1
4278;-500;1
4278;-489;1
4278;-528;1
4278;-467;1
4278;-456;1
4278;-514;1
4278;-501;1
4278;-451;1
4278;-500;1
4278;-511;1
4278;-461;1
4278;-513;1
4278;-493;1
4278;-509;1
4278;-502;1
4278;-457;1
4278;-448;1
4278;-520;1
4278;-499;1
4278;-520;1
4278;-501;1
4278;-521;1
4278;-497;1
4278;-520;1
4278;-500;1
4278;-528;1
4278;-509;1
4278;-537;1
4278;-512;1
4278;-533;1
4278;-518;1
4278;-551;1
4278;-499;1
4331;-552;1
4331;-481;1
4331;-524;1
4331;-514;1
4331;-493;1
4331;-540;1
4331;-536;1
4331;-536;1
4331;-536;1
4331;-536;1
4331;-536;1
4331;-536;1
4331;-536;1
4331;-536;1
4331;-536;1
4331;-536;1
4331;-536;1
4331;-536;1
4331;-536;1
4331;-474;1
4331;-526;1
4331;-506;1
4331;-507;1
4331;-526;1
4331;-465;1
4331;-457;1
4331;-520;1
4331;-500;1
4331;-518;1
4331;-508;1
4331;-532;1
4331;-515;1
4331;-530;1
4331;-511;1
4331;-463;1
4331;-522;1
4331;-506;1
4331;-471;1
4331;-522;1
4331;-503;1
4331;-525;1
4331;-502;1
4331;-523;1
4331;-507;1
4331;-528;1
4331;-525;1
4331;-556;1
4331;-504;1
4331;-554;1
4331;-481;1
4331;-526;1
4331;-524;1
4331;-499;1
4331;-550;1
4331;-510;1
4331;-545;1
4331;-542;1
4331;-523;1
4331;-508;1
4331;-544;1
4386;-476;1
4386;-462;1
4386;-524;1
4386;-505;1
4386;-507;1
4386;-524;1
4386;-518;1
4386;-523;1
4386;-528;1
4386;-517;1
4386;-528;1
4386;-520;1
4386;-470;1
4386;-465;1
4386;-523;1
4386;-506;1
4386;-527;1
4386;-502;1
4386;-521;1
4386;-521;1
4386;-521;1
4386;-521;1
4386;-521;1
4386;-521;1
4386;-521;1
4386;-521;1
4386;-521;1
4386;-521;1
4386;-521;1
4386;-521;1
4386;-521;1
4386;-498;1
4386;-519;1
4386;-508;1
4386;-477;1
4386;-538;1
4386;-494;1
4386;-551;1
4386;-545;1
4386;-530;1
4386;-501;1
4386;-542;1
4386;-481;1
4386;-465;1
4386;-528;1
4386;-504;1
4386;-469;1
4386;-497;1
4436;-468;1
4436;-468;1
4436;-468;1
4436;-468;1
4436;-468;1
4436;-468;1
4436;-468;1
4436;-468;1
4436;-468;1
4436;-468;1
4436;-468;1
4436;-468;1
4436;-468;1
4436;-463;1
4436;-523;1
4436;-506;1
4436;-533;1
4436;-521;1
4436;-470;1
4436;-476;1
4436;-537;1
4436;-521;1
4436;-540;1
4436;-511;1
4436;-540;1
4436;-540;1
4436;-540;1
4436;-540;1
4436;-540;1
4436;-540;1
4436;-540;1
4436;-540;1
4436;-540;1
4436;-540;1
4436;-540;1
4436;-540;1
4436;-540;1
4436;-513;1
4436;-538;1
4436;-515;1
4436;-474;1
4436;-483;1
4436;-547;1
4436;-489;1
4436;-530;1
4436;-522;1
4436;-499;1
4436;-548;1
4436;-481;1
4436;-470;1
4436;-525;1
4436;-504;1
4436;-498;1
4436;-532;1
4436;-463;1
4436;-451;1
4436;-509;1
4436;-491;1
4436;-505;1
4436;-518;1
4436;-463;1
4436;-454;1
4436;-516;1
4436;-501;1
4436;-514;1
4436;-498;1
4436;-527;1
4436;-507;1
4436;-524;1
4436;-502;1
4436;-459;1
4436;-512;1
4490;-496;1
4490;-460;1
4490;-516;1
4490;-496;1
4490;-452;1
4490;-518;1
4490;-499;1
4490;-526;1
4490;-495;1
4490;-471;1
4490;-534;1
4490;-485;1
4490;-542;1
4490;-470;1
4490;-512;1
4490;-510;1
4490;-463;1
4490;-491;1
4490;-533;1
4490;-472;1
4490;-512;1
4490;-505;1
4490;-494;1
4490;-526;1
4490;-464;1
4490;-465;1
4490;-523;1
4490;-500;1
4490;-457;1
4490;-500;1
4490;-510;1
4490;-460;1
4490;-515;1
4490;-499;1
4490;-529;1
4490;-508;1
4490;-530;1
4490;-505;1
4490;-523;1
4490;-514;1
4490;-529;1
4490;-516;1
4490;-466;1
4490;-459;1
4490;-525;1
4490;-502;1
4490;-530;1
4490;-514;1
4490;-469;1
4490;-477;1
4490;-542;1
4490;-535;1
4490;-572;1
4490;-511;1
4547;-551;1
4547;-461;1
4547;-488;1
4547;-467;1
4547;-415;1
4547;-445;1
4547;-626;1
4547;-626;1
4547;-626;1
4547;-626;1
4547;-626;1
4547;-626;1
4547;-626;1
4547;-626;1
4547;-626;1
4547;-626;1
4547;-626;1
4547;-626;1
4547;-626;1
4547;-682;1
4547;-703;1
4547;-702;1
4547;-731;1
4547;-756;1
4547;-746;1
4547;-746;1
4547;-746;1
4547;-746;1
4547;-746;1
4547;-746;1
4547;-746;1
4547;-746;1
4547;-746;1
4547;-746;1
4547;-746;1
4547;-746;1
4547;-746;1
4547;-597;1
4547;-689;1
4547;-699;1
4547;-727;1
4547;-710;1
4547;-744;1
4547;-660;1
4547;-677;1
4547;-638;1
4547;-496;1
4547;-530;1
4547;-562;1
4547;-519;1
4547;-513;1
4547;-465;1
4547;-468;1
4547;-388;1
4547;-401;1
4547;-315;1
4547;-358;1
4547;-372;1
4547;-439;1
4547;-464;1
4595;-425;1
4595;-480;1
4595;-418;1
4595;-484;1
4595;-478;1
4595;-521;1
4595;-459;1
4595;-446;1
4595;-513;1
4595;-515;1
4595;-523;1
4595;-544;1
4595;-501;1
4595;-488;1
4595;-627;1
4595;-572;1
4595;-580;1
4595;-570;1
4595;-431;1
4595;-481;1
4595;-550;1
4595;-544;1
4595;-571;1
4595;-556;1
4595;-510;1
4595;-488;1
4595;-545;1
4595;-540;1
4595;-494;1
4595;-484;1
4595;-622;1
4595;-565;1
4595;-591;1
4595;-592;1
4595;-545;1
4595;-567;1
4595;-617;1
4595;-548;1
4595;-587;1
4595;-587;1
4595;-553;1
4595;-605;1
4595;-533;1
4595;-513;1
4595;-565;1
4595;-559;1
4595;-584;1
4595;-563;1
4595;-589;1
4595;-522;1
4595;-497;1
4595;-556;1
4595;-516;1
4595;-564;1
4646;-574;1
4646;-519;1
4646;-571;1
4646;-571;1
4646;-639;1
4646;-707;1
4646;-620;1
4646;-558;1
4646;-596;1
4646;-565;1
4646;-580;1
4646;-548;1
4646;-571;1
4646;-540;1
4646;-559;1
4646;-539;1
4646;-558;1
4646;-531;1
4646;-551;1
4646;-526;1
4646;-547;1
4646;-521;1
4646;-479;1
4646;-492;1
4646;-525;1
4646;-525;1
4646;-525;1
4646;-525;1
4646;-525;1
4646;-525;1
4646;-525;1
4646;-525;1
4646;-525;1
4646;-525;1
4646;-525;1
4646;-525;1
4646;-525;1
4646;-466;1
4646;-524;1
4646;-504;1
4646;-499;1
4646;-530;1
4646;-465;1
4646;-462;1
4646;-524;1
4646;-503;1
4646;-515;1
4646;-515;1
4646;-458;1
4646;-446;1
4646;-512;1
4646;-493;1
4646;-449;1
4646;-512;1
4702;-495;1
4702;-448;1
4702;-508;1
4702;-492;1
4702;-516;1
4702;-492;1
4702;-517;1
4702;-504;1
4702;-524;1
4702;-502;1
4702;-463;1
4702;-522;1
4702;-488;1
4702;-531;1
4702;-490;1
4702;-472;1
4702;-535;1
4702;-488;1
4702;-543;1
4702;-479;1
4702;-517;1
4702;-509;1
4702;-483;1
4702;-531;1
4702;-494;1
4702;-530;1
4702;-535;1
4702;-514;1
4702;-506;1
4702;-535;1
4702;-519;1
4702;-533;1
4702;-532;1
4702;-512;1
4702;-518;1
4702;-523;1
4702;-527;1
4702;-518;1
4702;-531;1
4702;-510;1
4702;-461;1
4702;-517;1
4702;-506;1
4702;-456;1
4702;-518;1
4702;-499;1
4702;-453;1
4702;-526;1
4702;-503;1
4702;-461;1
4702;-520;1
4702;-503;1
4702;-455;1
4702;-526;1
4753;-506;1
4753;-537;1
4753;-471;1
4753;-454;1
4753;-452;1
4753;-470;1
4753;-529;1
4753;-460;1
4753;-502;1
4753;-505;1
4753;-457;1
4753;-481;1
4753;-526;1
4753;-467;1
4753;-519;1
4753;-507;1
4753;-505;1
4753;-530;1
4753;-462;1
4753;-455;1
4753;-519;1
4753;-501;1
4753;-510;1
4753;-508;1
4753;-521;1
4753;-512;1
4753;-528;1
4753;-509;1
4753;-524;1
4753;-514;1
4753;-470;1
4753;-467;1
4753;-535;1
4753;-506;1
4753;-528;1
4753;-508;1
4753;-534;1
4753;-513;1
4753;-531;1
4753;-514;1
4753;-468;1
4753;-531;1
4753;-515;1
4753;-548;1
4753;-480;1
4753;-461;1
4753;-465;1
4753;-482;1
4804;-530;1
4804;-467;1
4804;-513;1
4804;-516;1
4804;-488;1
4804;-531;1
4804;-503;1
4804;-535;1
4804;-531;1
4804;-509;1
4804;-512;1
4804;-530;1
4804;-470;1
4804;-463;1
4804;-523;1
4804;-501;1
4804;-458;1
4804;-513;1
4804;-505;1
4804;-466;1
4804;-525;1
4804;-504;1
4804;-529;1
4804;-504;1
4804;-527;1
4804;-494;1
4804;-515;1
4804;-502;1
4804;-523;1
4804;-508;1
4804;-537;1
4804;-507;1
4804;-527;1
4804;-511;1
4804;-532;1
4804;-495;1
4804;-529;1
4804;-496;1
4804;-521;1
4804;-507;1
4804;-457;1
4804;-477;1
4804;-533;1
4804;-464;1
4804;-504;1
4804;-503;1
4804;-483;1
4804;-524;1
4804;-455;1
4804;-443;1
4804;-501;1
4804;-486;1
4804;-485;1
4804;-508;1
4858;-496;1
4858;-507;1
4858;-516;1
4858;-496;1
4858;-502;1
4858;-508;1
4858;-500;1
4858;-500;1
4858;-500;1
4858;-500;1
4858;-500;1
4858;-500;1
4858;-500;1
4858;-500;1
4858;-500;1
4858;-500;1
4858;-500;1
4858;-500;1
4858;-500;1
4858;-456;1
4858;-507;1
4858;-492;1
4858;-451;1
4858;-506;1
4858;-488;1
4858;-518;1
4858;-493;1
4858;-451;1
4858;-514;1
4858;-499;1
4858;-537;1
4858;-472;1
4858;-517;1
4858;-504;1
4858;-455;1
4858;-466;1
4858;-528;1
4858;-464;1
4858;-512;1
4858;-506;1
4858;-488;1
4858;-520;1
4858;-459;1
4858;-449;1
4858;-511;1
4858;-489;1
4858;-492;1
4858;-511;1
4858;-452;1
4858;-450;1
4858;-513;1
4858;-490;1
4858;-447;1
4858;-504;1
4919;-525;1
4919;-525;1
4919;-525;1
4919;-525;1
4919;-525;1
4919;-525;1
4919;-525;1
4919;-525;1
4919;-525;1
4919;-525;1
4919;-525;1
4919;-525;1
4919;-525;1
4919;-503;1
4919;-519;1
4919;-511;1
4919;-531;1
4919;-507;1
4919;-520;1
4919;-520;1
4919;-520;1
4919;-520;1
4919;-520;1
4919;-520;1
4919;-520;1
4919;-520;1
4919;-520;1
4919;-520;1
4919;-520;1
4919;-520;1
4919;-520;1
4919;-551;1
4919;-476;1
4919;-456;1
4919;-453;1
4919;-478;1
4919;-529;1
4919;-464;1
4919;-505;1
4919;-502;1
4919;-487;1
4919;-527;1
4919;-461;1
4919;-454;1
4919;-511;1
4919;-495;1
4919;-505;1
4919;-521;1
4919;-505;1
4919;-520;1
4919;-536;1
4919;-514;1
4919;-520;1
4919;-525;1
4919;-467;1
4919;-454;1
4919;-512;1
4919;-503;1
4919;-520;1
4919;-502;1
4964;-458;1
4964;-452;1
4964;-511;1
4964;-494;1
4964;-451;1
4964;-512;1
4964;-489;1
4964;-489;1
4964;-489;1
4964;-489;1
4964;-489;1
4964;-489;1
4964;-489;1
4964;-489;1
4964;-489;1
4964;-489;1
4964;-489;1
4964;-489;1
4964;-489;1
4964;-537;1
4964;-474;1
4964;-454;1
4964;-451;1
4964;-475;1
4964;-520;1
4964;-456;1
4964;-505;1
4964;-495;1
4964;-478;1
4964;-520;1
4964;-495;1
4964;-531;1
4964;-531;1
4964;-507;1
4964;-463;1
4964;-503;1
4964;-520;1
4964;-468;1
4964;-528;1
4964;-502;1
4964;-462;1
4964;-518;1
4964;-508;1
4964;-459;1
4964;-508;1
4964;-500;1
4964;-457;1
4964;-521;1
4964;-501;1
4964;-501;1
4964;-501;1
4964;-501;1
4964;-501;1
4964;-501;1
4964;-501;1
4964;-501;1
4964;-501;1
4964;-501;1
4964;-501;1
4964;-501;1
4964;-501;1
4964;-525;1
4964;-504;1
4964;-459;1
4964;-472;1
4964;-536;1
4964;-480;1
4964;-479;1
4964;-533;1
4964;-468;1
4964;-453;1
4964;-479;1
5017;-533;1
5017;-465;1
5017;-519;1
5017;-505;1
5017;-497;1
5017;-529;1
5017;-460;1
5017;-456;1
5017;-517;1
5017;-498;1
5017;-506;1
5017;-524;1
5017;-516;1
5017;-527;1
5017;-534;1
5017;-521;1
5017;-532;1
5017;-526;1
5017;-478;1
5017;-469;1
5017;-530;1
5017;-511;1
5017;-462;1
5017;-524;1
5017;-540;1
5017;-540;1
5017;-540;1
5017;-540;1
5017;-540;1
5017;-540;1
5017;-540;1
5017;-540;1
5017;-540;1
5017;-540;1
5017;-540;1
5017;-540;1
5017;-540;1
5017;-513;1
5017;-532;1
5017;-514;1
5017;-485;1
5017;-554;1
5017;-501;1
5017;-549;1
5017;-486;1
5017;-483;1
5017;-545;1
5017;-502;1
5017;-550;1
5017;-479;1
5017;-524;1
5017;-517;1
5017;-505;1
5017;-539;1
5071;-479;1
5071;-470;1
5071;-523;1
5071;-504;1
5071;-515;1
5071;-529;1
5071;-519;1
5071;-524;1
5071;-533;1
5071;-515;1
5071;-536;1
5071;-521;1
5071;-517;1
5071;-517;1
5071;-517;1
5071;-517;1
5071;-517;1
5071;-517;1
5071;-517;1
5071;-517;1
5071;-517;1
5071;-517;1
5071;-517;1
5071;-517;1
5071;-517;1
5071;-474;1
5071;-531;1
5071;-511;1
5071;-538;1
5071;-517;1
5071;-535;1
5071;-518;1
5071;-531;1
5071;-516;1
5071;-491;1
5071;-549;1
5071;-497;1
5071;-547;1
5071;-486;1
5071;-467;1
5071;-491;1
5071;-548;1
5071;-503;1
5071;-544;1
5071;-539;1
5071;-531;1
5071;-480;1
5071;-511;1
5071;-540;1
5071;-478;1
5071;-535;1
5071;-506;1
5071;-518;1
5071;-532;1
5071;-522;1
5071;-523;1
5071;-533;1
5071;-525;1
5071;-533;1
5071;-527;1
5122;-540;1
5122;-513;1
5122;-536;1
5122;-523;1
5122;-476;1
5122;-539;1
5122;-519;1
5122;-477;1
5122;-533;1
5122;-516;1
5122;-478;1
5122;-539;1
5122;-495;1
5122;-495;1
5122;-495;1
5122;-495;1
5122;-495;1
5122;-495;1
5122;-495;1
5122;-495;1
5122;-495;1
5122;-495;1
5122;-495;1
5122;-495;1
5122;-495;1
5122;-547;1
5122;-478;1
5122;-487;1
5122;-548;1
5122;-507;1
5122;-519;1
5122;-519;1
5122;-519;1
5122;-519;1
5122;-519;1
5122;-519;1
5122;-519;1
5122;-519;1
5122;-519;1
5122;-519;1
5122;-519;1
5122;-519;1
5122;-519;1
5122;-546;1
5122;-548;1
5122;-533;1
5122;-533;1
5122;-539;1
5122;-484;1
5122;-480;1
5122;-542;1
5122;-525;1
5122;-537;1
5122;-525;1
5122;-539;1
5122;-522;1
5122;-539;1
5122;-517;1
5122;-475;1
5122;-535;1
5173;-521;1
5173;-479;1
5173;-533;1
5173;-518;1
5173;-472;1
5173;-471;1
5173;-531;1
5173;-508;1
5173;-521;1
5173;-506;1
5173;-478;1
5173;-539;1
5173;-494;1
5173;-544;1
5173;-469;1
5173;-459;1
5173;-459;1
5173;-481;1
5173;-527;1
5173;-458;1
5173;-505;1
5173;-497;1
5173;-484;1
5173;-520;1
5173;-453;1
5173;-449;1
5173;-501;1
5173;-488;1
5173;-498;1
5173;-518;1
5173;-502;1
5173;-502;1
5173;-502;1
5173;-502;1
5173;-502;1
5173;-502;1
5173;-502;1
5173;-502;1
5173;-502;1
5173;-502;1
5173;-502;1
5173;-502;1
5173;-502;1
5173;-456;1
5173;-514;1
5173;-503;1
5173;-460;1
5173;-521;1
5173;-493;1
5173;-455;1
5173;-516;1
5173;-493;1
5173;-449;1
5173;-517;1
5173;-505;1
5173;-457;1
5173;-508;1
5173;-494;1
5173;-469;1
5173;-534;1
5225;-486;1
5225;-538;1
5225;-543;1
5225;-554;1
5225;-563;1
5225;-517;1
5225;-552;1
5225;-479;1
5225;-524;1
5225;-517;1
5225;-470;1
5225;-508;1
5225;-532;1
5225;-471;1
5225;-524;1
5225;-501;1
5225;-453;1
5225;-503;1
5225;-515;1
5225;-460;1
5225;-520;1
5225;-510;1
5225;-524;1
5225;-516;1
5225;-477;1
5225;-479;1
5225;-544;1
5225;-526;1
5225;-475;1
5225;-522;1
5225;-484;1
5225;-423;1
5225;-473;1
5225;-441;1
5225;-407;1
5225;-487;1
5225;-479;1
5225;-530;1
5225;-529;1
5225;-526;1
5225;-639;1
5225;-622;1
5225;-709;1
5225;-660;1
5225;-724;1
5225;-727;1
5225;-710;1
5225;-752;1
5277;-814;1
5277;-758;1
5277;-815;1
5277;-735;1
5277;-676;1
5277;-745;1
5277;-787;1
5277;-713;1
5277;-690;1
5277;-742;1
5277;-690;1
5277;-722;1
5277;-723;1
5277;-635;1
5277;-660;1
5277;-623;1
5277;-545;1
5277;-577;1
5277;-532;1
5277;-448;1
5277;-537;1
5277;-440;1
5277;-427;1
5277;-373;1
5277;-223;1
5277;-277;1
5277;-357;1
5277;-363;1
5277;-329;1
5277;-407;1
5277;-410;1
5277;-451;1
5277;-454;1
5277;-419;1
5277;-504;1
5277;-471;1
5277;-600;1
5277;-519;1
5277;-570;1
5277;-530;1
5277;-511;1
5277;-539;1
5277;-595;1
5277;-521;1
5277;-559;1
5277;-572;1
5277;-555;1
5277;-582;1
5332;-564;1
5332;-593;1
5332;-589;1
5332;-580;1
5332;-598;1
5332;-586;1
5332;-589;1
5332;-521;1
5332;-494;1
5332;-557;1
5332;-580;1
5332;-577;1
5332;-589;1
5332;-589;1
5332;-589;1
5332;-589;1
5332;-589;1
5332;-589;1
5332;-589;1
5332;-589;1
5332;-589;1
5332;-589;1
5332;-589;1
5332;-589;1
5332;-589;1
5332;-569;1
5332;-668;1
5332;-608;1
5332;-621;1
5332;-601;1
5332;-538;1
5332;-584;1
5332;-599;1
5332;-601;1
5332;-634;1
5332;-584;1
5332;-638;1
5332;-568;1
5332;-613;1
5332;-606;1
5332;-577;1
5332;-632;1
5332;-651;1
5332;-648;1
5332;-632;1
5332;-623;1
5332;-527;1
5332;-748;1
5332;-697;1
5332;-601;1
5332;-627;1
5332;-593;1
5332;-534;1
5332;-571;1
5332;-566;1
5332;-506;1
5332;-558;1
5332;-547;1
5332;-560;1
5332;-543;1
5332;-563;1
5332;-528;1
5332;-541;1
5332;-535;1
5332;-551;1
5332;-522;1
5383;-550;1
5383;-509;1
5383;-530;1
5383;-511;1
5383;-458;1
5383;-452;1
5383;-514;1
5383;-495;1
5383;-519;1
5383;-519;1
5383;-550;1
5383;-503;1
5383;-557;1
5383;-485;1
5383;-518;1
5383;-508;1
5383;-492;1
5383;-542;1
5383;-474;1
5383;-464;1
5383;-512;1
5383;-504;1
5383;-499;1
5383;-517;1
5383;-500;1
5383;-520;1
5383;-526;1
5383;-509;1
5383;-457;1
5383;-504;1
5383;-501;1
5383;-501;1
5383;-501;1
5383;-501;1
5383;-501;1
5383;-501;1
5383;-501;1
5383;-501;1
5383;-501;1
5383;-501;1
5383;-501;1
5383;-501;1
5383;-501;1
5383;-456;1
5383;-509;1
5383;-499;1
5383;-507;1
5383;-486;1
5383;-444;1
5383;-442;1
5383;-503;1
5383;-490;1
5383;-447;1
5383;-440;1
5434;-507;1
5434;-494;1
5434;-513;1
5434;-519;1
5434;-549;1
5434;-500;1
5434;-540;1
5434;-468;1
5434;-522;1
5434;-504;1
5434;-485;1
5434;-532;1
5434;-461;1
5434;-457;1
5434;-505;1
5434;-500;1
5434;-491;1
5434;-520;1
5434;-457;1
5434;-450;1
5434;-515;1
5434;-500;1
5434;-517;1
5434;-520;1
5434;-469;1
5434;-450;1
5434;-515;1
5434;-497;1
5434;-452;1
5434;-522;1
5434;-502;1
5434;-459;1
5434;-512;1
5434;-495;1
5434;-450;1
5434;-516;1
5434;-496;1
5434;-461;1
5434;-512;1
5434;-508;1
5434;-463;1
5434;-516;1
5434;-504;1
5434;-484;1
5434;-535;1
5434;-469;1
5434;-453;1
5434;-479;1
5486;-491;1
5486;-491;1
5486;-491;1
5486;-491;1
5486;-491;1
5486;-491;1
5486;-491;1
5486;-491;1
5486;-491;1
5486;-491;1
5486;-491;1
5486;-491;1
5486;-491;1
5486;-530;1
5486;-521;1
5486;-510;1
5486;-504;1
5486;-531;1
5486;-471;1
5486;-466;1
5486;-528;1
5486;-507;1
5486;-465;1
5486;-516;1
5486;-515;1
5486;-463;1
5486;-518;1
5486;-501;1
5486;-517;1
5486;-496;1
5486;-520;1
5486;-503;1
5486;-522;1
5486;-504;1
5486;-532;1
5486;-509;1
5486;-521;1
5486;-521;1
5486;-521;1
5486;-521;1
5486;-521;1
5486;-521;1
5486;-521;1
5486;-521;1
5486;-521;1
5486;-521;1
5486;-521;1
5486;-521;1
5486;-521;1
5486;-551;1
5486;-481;1
5486;-457;1
5486;-469;1
5486;-529;1
5486;-488;1
5486;-539;1
5486;-531;1
5486;-507;1
5486;-457;1
5486;-487;1
5537;-526;1
5537;-468;1
5537;-517;1
5537;-515;1
5537;-508;1
5537;-532;1
5537;-470;1
5537;-461;1
5537;-523;1
5537;-493;1
5537;-514;1
5537;-513;1
5537;-456;1
5537;-458;1
5537;-523;1
5537;-498;1
5537;-452;1
5537;-512;1
5537;-490;1
5537;-449;1
5537;-505;1
5537;-494;1
5537;-524;1
5537;-501;1
5537;-505;1
5537;-505;1
5537;-505;1
5537;-505;1
5537;-505;1
5537;-505;1
5537;-505;1
5537;-505;1
5537;-505;1
5537;-505;1
5537;-505;1
5537;-505;1
5537;-505;1
5537;-544;1
5537;-478;1
5537;-452;1
5537;-443;1
5537;-464;1
5537;-516;1
5537;-447;1
5537;-497;1
5537;-488;1
5537;-473;1
5537;-511;1
5537;-482;1
5537;-519;1
5537;-515;1
5537;-499;1
5537;-497;1
5537;-519;1
5537;-502;1
5537;-521;1
5537;-524;1
5537;-515;1
5537;-512;1
5537;-509;1
5588;-453;1
5588;-439;1
5588;-504;1
5588;-488;1
5588;-449;1
5588;-507;1
5588;-519;1
5588;-519;1
5588;-519;1
5588;-519;1
5588;-519;1
5588;-519;1
5588;-519;1
5588;-519;1
5588;-519;1
5588;-519;1
5588;-519;1
5588;-519;1
5588;-519;1
5588;-498;1
5588;-525;1
5588;-512;1
5588;-520;1
5588;-520;1
5588;-530;1
5588;-530;1
5588;-530;1
5588;-530;1
5588;-530;1
5588;-530;1
5588;-530;1
5588;-530;1
5588;-530;1
5588;-530;1
5588;-530;1
5588;-530;1
5588;-530;1
5588;-463;1
5588;-513;1
5588;-502;1
5588;-490;1
5588;-531;1
5588;-467;1
5588;-456;1
5588;-511;1
5588;-506;1
5588;-497;1
5588;-524;1
5588;-508;1
5588;-524;1
5588;-526;1
5588;-502;1
5588;-517;1
5588;-516;1
5588;-463;1
5588;-461;1
5588;-522;1
5588;-501;1
5588;-458;1
5588;-517;1
5639;-490;1
5639;-490;1
5639;-490;1
5639;-490;1
5639;-490;1
5639;-490;1
5639;-490;1
5639;-490;1
5639;-490;1
5639;-490;1
5639;-490;1
5639;-490;1
5639;-490;1
5639;-507;1
5639;-499;1
5639;-452;1
5639;-447;1
5639;-459;1
5639;-525;1
5639;-464;1
5639;-506;1
5639;-496;1
5639;-474;1
5639;-532;1
5639;-494;1
5639;-541;1
5639;-542;1
5639;-515;1
5639;-502;1
5639;-535;1
5639;-505;1
5639;-505;1
5639;-505;1
5639;-505;1
5639;-505;1
5639;-505;1
5639;-505;1
5639;-505;1
5639;-505;1
5639;-505;1
5639;-505;1
5639;-505;1
5639;-505;1
5639;-520;1
5639;-523;1
5639;-502;1
5639;-520;1
5639;-515;1
5639;-463;1
5639;-460;1
5639;-519;1
5639;-500;1
5639;-521;1
5639;-507;1
5639;-530;1
5639;-509;1
5639;-536;1
5639;-516;1
5639;-464;1
5639;-453;1
5689;-516;1
5689;-499;1
5689;-521;1
5689;-502;1
5689;-460;1
5689;-511;1
5689;-489;1
5689;-465;1
5689;-526;1
5689;-466;1
5689;-468;1
5689;-530;1
5689;-493;1
5689;-543;1
5689;-540;1
5689;-515;1
5689;-498;1
5689;-527;1
5689;-517;1
5689;-517;1
5689;-517;1
5689;-517;1
5689;-517;1
5689;-517;1
5689;-517;1
5689;-517;1
5689;-517;1
5689;-517;1
5689;-517;1
5689;-517;1
5689;-517;1
5689;-460;1
5689;-517;1
5689;-494;1
5689;-511;1
5689;-506;1
5689;-530;1
5689;-530;1
5689;-530;1
5689;-530;1
5689;-530;1
5689;-530;1
5689;-530;1
5689;-530;1
5689;-530;1
5689;-530;1
5689;-530;1
5689;-530;1
5689;-530;1
5689;-510;1
5689;-532;1
5689;-507;1
5689;-532;1
5689;-506;1
5689;-559;1
5689;-559;1
5689;-559;1
5689;-559;1
5689;-559;1
5689;-559;1
5689;-559;1
5689;-559;1
5689;-559;1
5689;-559;1
5689;-559;1
5689;-559;1
5689;-559;1
5689;-492;1
5689;-535;1
5689;-543;1
5689;-562;1
5689;-515;1
5745;-516;1
5745;-516;1
5745;-516;1
5745;-516;1
5745;-516;1
5745;-516;1
5745;-516;1
5745;-516;1
5745;-516;1
5745;-516;1
5745;-516;1
5745;-516;1
5745;-516;1
5745;-539;1
5745;-532;1
5745;-523;1
5745;-510;1
5745;-538;1
5745;-523;1
5745;-533;1
5745;-537;1
5745;-522;1
5745;-475;1
5745;-527;1
5745;-521;1
5745;-475;1
5745;-527;1
5745;-512;1
5745;-467;1
5745;-523;1
5745;-506;1
5745;-463;1
5745;-513;1
5745;-500;1
5745;-459;1
5745;-515;1
5745;-547;1
5745;-547;1
5745;-547;1
5745;-547;1
5745;-547;1
5745;-547;1
5745;-547;1
5745;-547;1
5745;-547;1
5745;-547;1
5745;-547;1
5745;-547;1
5745;-547;1
5745;-498;1
5745;-545;1
5745;-474;1
5745;-484;1
5745;-541;1
5745;-498;1
5745;-540;1
5745;-533;1
5745;-520;1
5745;-499;1
5745;-536;1
5745;-511;1
5745;-533;1
5745;-526;1
5745;-526;1
5745;-513;1
5745;-528;1
5796;-515;1
5796;-515;1
5796;-515;1
5796;-515;1
5796;-515;1
5796;-515;1
5796;-515;1
5796;-515;1
5796;-515;1
5796;-515;1
5796;-515;1
5796;-515;1
5796;-515;1
5796;-473;1
5796;-523;1
5796;-501;1
5796;-464;1
5796;-527;1
5796;-513;1
5796;-513;1
5796;-513;1
5796;-513;1
5796;-513;1
5796;-513;1
5796;-513;1
5796;-513;1
5796;-513;1
5796;-513;1
5796;-513;1
5796;-513;1
5796;-513;1
5796;-496;1
5796;-519;1
5796;-503;1
5796;-525;1
5796;-516;1
5796;-551;1
5796;-551;1
5796;-551;1
5796;-551;1
5796;-551;1
5796;-551;1
5796;-551;1
5796;-551;1
5796;-551;1
5796;-551;1
5796;-551;1
5796;-551;1
5796;-551;1
5796;-474;1
5796;-527;1
5796;-511;1
5796;-463;1
5796;-499;1
5796;-526;1
5796;-463;1
5796;-516;1
5796;-512;1
5796;-468;1
5796;-506;1
5796;-519;1
5796;-460;1
5796;-517;1
5796;-499;1
5796;-516;1
5796;-513;1
5849;-523;1
5849;-510;1
5849;-522;1
5849;-517;1
5849;-470;1
5849;-527;1
5849;-518;1
5849;-518;1
5849;-518;1
5849;-518;1
5849;-518;1
5849;-518;1
5849;-518;1
5849;-518;1
5849;-518;1
5849;-518;1
5849;-518;1
5849;-518;1
5849;-518;1
5849;-496;1
5849;-521;1
5849;-506;1
5849;-470;1
5849;-535;1
5849;-499;1
5849;-499;1
5849;-499;1
5849;-499;1
5849;-499;1
5849;-499;1
5849;-499;1
5849;-499;1
5849;-499;1
5849;-499;1
5849;-499;1
5849;-499;1
5849;-499;1
5849;-543;1
5849;-542;1
5849;-520;1
5849;-506;1
5849;-535;1
5849;-511;1
5849;-539;1
5849;-532;1
5849;-527;1
5849;-477;1
5849;-524;1
5849;-534;1
5849;-478;1
5849;-535;1
5849;-518;1
5849;-470;1
5849;-529;1
5904;-515;1
5904;-479;1
5904;-528;1
5904;-514;1
5904;-531;1
5904;-509;1
5904;-533;1
5904;-533;1
5904;-533;1
5904;-533;1
5904;-533;1
5904;-533;1
5904;-533;1
5904;-533;1
5904;-533;1
5904;-533;1
5904;-533;1
5904;-533;1
5904;-533;1
5904;-506;1
5904;-530;1
5904;-518;1
5904;-470;1
5904;-482;1
5904;-546;1
5904;-483;1
5904;-530;1
5904;-513;1
5904;-468;1
5904;-483;1
5904;-530;1
5904;-468;1
5904;-521;1
5904;-507;1
5904;-458;1
5904;-486;1
5904;-504;1
5904;-504;1
5904;-504;1
5904;-504;1
5904;-504;1
5904;-504;1
5904;-504;1
5904;-504;1
5904;-504;1
5904;-504;1
5904;-504;1
5904;-504;1
5904;-504;1
5904;-516;1
5904;-527;1
5904;-509;1
5904;-523;1
5904;-511;1
5904;-529;1
5904;-516;1
5904;-533;1
5904;-512;1
5904;-464;1
5904;-523;1
5904;-502;1
5904;-461;1
5904;-518;1
5904;-496;1
5904;-457;1
5904;-455;1
5904;-468;1
5904;-468;1
5904;-468;1
5904;-468;1
5904;-468;1
5904;-468;1
5904;-468;1
5904;-468;1
5904;-468;1
5904;-468;1
5904;-468;1
5904;-468;1
5904;-468;1
5904;-470;1
5904;-529;1
5904;-490;1
5904;-542;1
5904;-493;1
5960;-543;1
5960;-473;1
5960;-518;1
5960;-501;1
5960;-491;1
5960;-525;1
5960;-516;1
5960;-516;1
5960;-516;1
5960;-516;1
5960;-516;1
5960;-516;1
5960;-516;1
5960;-516;1
5960;-516;1
5960;-516;1
5960;-516;1
5960;-516;1
5960;-516;1
5960;-516;1
5960;-529;1
5960;-510;1
5960;-463;1
5960;-517;1
5960;-510;1
5960;-465;1
5960;-523;1
5960;-498;1
5960;-462;1
5960;-527;1
5960;-505;1
5960;-468;1
5960;-533;1
5960;-520;1
5960;-546;1
5960;-524;1
5960;-416;1
5960;-416;1
5960;-416;1
5960;-416;1
5960;-416;1
5960;-416;1
5960;-416;1
5960;-416;1
5960;-416;1
5960;-416;1
5960;-416;1
5960;-416;1
5960;-416;1
5960;-429;1
5960;-502;1
5960;-453;1
5960;-488;1
5960;-563;1
5960;-761;1
5960;-761;1
5960;-761;1
5960;-761;1
5960;-761;1
5960;-761;1
5960;-761;1
5960;-761;1
5960;-761;1
5960;-761;1
5960;-761;1
5960;-761;1
5960;-761;1
5960;-721;1
5960;-788;1
5960;-801;1
5960;-818;1
5960;-839;1
6011;-783;1
6011;-783;1
6011;-783;1
6011;-783;1
6011;-783;1
6011;-783;1
6011;-783;1
6011;-783;1
6011;-783;1
6011;-783;1
6011;-783;1
6011;-783;1
6011;-783;1
6011;-713;1
6011;-683;1
6011;-725;1
6011;-717;1
6011;-667;1
6011;-592;1
6011;-557;1
6011;-576;1
6011;-530;1
6011;-438;1
6011;-451;1
6011;-403;1
6011;-396;1
6011;-425;1
6011;-325;1
6011;-383;1
6011;-346;1
6011;-335;1
6011;-354;1
6011;-412;1
6011;-421;1
6011;-413;1
6011;-486;1
6011;-462;1
6011;-513;1
6011;-519;1
6011;-510;1
6011;-509;1
6011;-555;1
6011;-560;1
6011;-506;1
6011;-541;1
6011;-556;1
6011;-466;1
6011;-559;1
6011;-506;1
6011;-492;1
6011;-543;1
6011;-537;1
6011;-555;1
6011;-550;1
6063;-570;1
6063;-560;1
6063;-572;1
6063;-556;1
6063;-580;1
6063;-589;1
6063;-566;1
6063;-519;1
6063;-491;1
6063;-551;1
6063;-579;1
6063;-575;1
6063;-595;1
6063;-583;1
6063;-586;1
6063;-582;1
6063;-525;1
6063;-530;1
6063;-593;1
6063;-526;1
6063;-647;1
6063;-580;1
6063;-517;1
6063;-528;1
6063;-506;1
6063;-511;1
6063;-567;1
6063;-558;1
6063;-551;1
6063;-596;1
6063;-527;1
6063;-505;1
6063;-560;1
6063;-568;1
6063;-682;1
6063;-707;1
6063;-642;1
6063;-619;1
6063;-613;1
6063;-583;1
6063;-512;1
6063;-565;1
6063;-535;1
6063;-484;1
6063;-544;1
6063;-528;1
6063;-544;1
6063;-525;1
6118;-518;1
6118;-518;1
6118;-518;1
6118;-518;1
6118;-518;1
6118;-518;1
6118;-518;1
6118;-518;1
6118;-518;1
6118;-518;1
6118;-518;1
6118;-518;1
6118;-518;1
6118;-498;1
6118;-519;1
6118;-520;1
6118;-538;1
6118;-488;1
6118;-534;1
6118;-459;1
6118;-508;1
6118;-495;1
6118;-457;1
6118;-480;1
6118;-529;1
6118;-463;1
6118;-516;1
6118;-498;1
6118;-495;1
6118;-522;1
6118;-444;1
6118;-444;1
6118;-444;1
6118;-444;1
6118;-444;1
6118;-444;1
6118;-444;1
6118;-444;1
6118;-444;1
6118;-444;1
6118;-444;1
6118;-444;1
6118;-444;1
6118;-440;1
6118;-501;1
6118;-480;1
6118;-442;1
6118;-503;1
6118;-483;1
6118;-447;1
6118;-507;1
6118;-492;1
6118;-522;1
6118;-496;1
6118;-454;1
6118;-448;1
6118;-499;1
6118;-490;1
6118;-443;1
6118;-443;1
6118;-508;1
6118;-486;1
6118;-499;1
6118;-501;1
6118;-529;1
6118;-483;1
6118;-533;1
6118;-461;1
6118;-511;1
6118;-502;1
6118;-482;1
6118;-533;1
6170;-503;1
6170;-538;1
6170;-537;1
6170;-514;1
6170;-457;1
6170;-500;1
6170;-516;1
6170;-463;1
6170;-513;1
6170;-501;1
6170;-448;1
6170;-496;1
6170;-499;1
6170;-450;1
6170;-511;1
6170;-490;1
6170;-518;1
6170;-505;1
6170;-529;1
6170;-505;1
6170;-525;1
6170;-517;1
6170;-534;1
6170;-508;1
6170;-460;1
6170;-462;1
6170;-522;1
6170;-505;1
6170;-460;1
6170;-454;1
6170;-513;1
6170;-495;1
6170;-517;1
6170;-506;1
6170;-470;1
6170;-535;1
6170;-490;1
6170;-540;1
6170;-547;1
6170;-524;1
6170;-478;1
6170;-494;1
6170;-539;1
6170;-467;1
6170;-521;1
6170;-505;1
6170;-502;1
6170;-523;1
6225;-507;1
6225;-520;1
6225;-523;1
6225;-511;1
6225;-464;1
6225;-512;1
6225;-514;1
6225;-464;1
6225;-524;1
6225;-506;1
6225;-537;1
6225;-516;1
6225;-464;1
6225;-467;1
6225;-526;1
6225;-500;1
6225;-529;1
6225;-503;1
6225;-530;1
6225;-503;1
6225;-525;1
6225;-507;1
6225;-524;1
6225;-505;1
6225;-526;1
6225;-501;1
6225;-522;1
6225;-510;1
6225;-466;1
6225;-481;1
6225;-542;1
6225;-472;1
6225;-520;1
6225;-512;1
6225;-486;1
6225;-527;1
6225;-494;1
6225;-494;1
6225;-494;1
6225;-494;1
6225;-494;1
6225;-494;1
6225;-494;1
6225;-494;1
6225;-494;1
6225;-494;1
6225;-494;1
6225;-494;1
6225;-494;1
6225;-512;1
6225;-519;1
6225;-512;1
6225;-515;1
6225;-522;1
6278;-524;1
6278;-519;1
6278;-535;1
6278;-522;1
6278;-529;1
6278;-509;1
6278;-527;1
6278;-511;1
6278;-531;1
6278;-511;1
6278;-468;1
6278;-530;1
6278;-498;1
6278;-453;1
6278;-511;1
6278;-488;1
6278;-443;1
6278;-507;1
6278;-508;1
6278;-544;1
6278;-475;1
6278;-456;1
6278;-454;1
6278;-473;1
6278;-526;1
6278;-457;1
6278;-508;1
6278;-492;1
6278;-484;1
6278;-519;1
6278;-499;1
6278;-499;1
6278;-499;1
6278;-499;1
6278;-499;1
6278;-499;1
6278;-499;1
6278;-499;1
6278;-499;1
6278;-499;1
6278;-499;1
6278;-499;1
6278;-499;1
6278;-509;1
6278;-507;1
6278;-503;1
6278;-458;1
6278;-508;1
6278;-507;1
6278;-459;1
6278;-519;1
6278;-495;1
6278;-448;1
6278;-508;1
6278;-496;1
6278;-452;1
6278;-503;1
6278;-481;1
6278;-440;1
6278;-499;1
6329;-513;1
6329;-513;1
6329;-513;1
6329;-513;1
6329;-513;1
6329;-513;1
6329;-513;1
6329;-513;1
6329;-513;1
6329;-513;1
6329;-513;1
6329;-513;1
6329;-513;1
6329;-487;1
6329;-507;1
6329;-491;1
6329;-451;1
6329;-468;1
6329;-528;1
6329;-453;1
6329;-505;1
6329;-486;1
6329;-472;1
6329;-512;1
6329;-449;1
6329;-449;1
6329;-504;1
6329;-493;1
6329;-453;1
6329;-490;1
6329;-510;1
6329;-453;1
6329;-505;1
6329;-497;1
6329;-508;1
6329;-512;1
6329;-513;1
6329;-503;1
6329;-518;1
6329;-499;1
6329;-520;1
6329;-504;1
6329;-463;1
6329;-448;1
6329;-509;1
6329;-495;1
6329;-521;1
6329;-501;1
6329;-498;1
6329;-498;1
6329;-498;1
6329;-498;1
6329;-498;1
6329;-498;1
6329;-498;1
6329;-498;1
6329;-498;1
6329;-498;1
6329;-498;1
6329;-498;1
6329;-498;1
6329;-472;1
6329;-535;1
6329;-463;1
6329;-453;1
6329;-474;1
6385;-528;1
6385;-455;1
6385;-505;1
6385;-490;1
6385;-444;1
6385;-472;1
6385;-515;1
6385;-451;1
6385;-511;1
6385;-494;1
6385;-497;1
6385;-519;1
6385;-512;1
6385;-517;1
6385;-521;1
6385;-514;1
6385;-519;1
6385;-515;1
6385;-523;1
6385;-511;1
6385;-527;1
6385;-510;1
6385;-528;1
6385;-508;1
6385;-508;1
6385;-508;1
6385;-508;1
6385;-508;1
6385;-508;1
6385;-508;1
6385;-508;1
6385;-508;1
6385;-508;1
6385;-508;1
6385;-508;1
6385;-508;1
6385;-508;1
6385;-535;1
6385;-512;1
6385;-463;1
6385;-522;1
6385;-518;1
6385;-550;1
6385;-483;1
6385;-525;1
6385;-524;1
6385;-553;1
6385;-502;1
6385;-544;1
6385;-479;1
6385;-525;1
6385;-508;1
6385;-499;1
6385;-539;1
6437;-472;1
6437;-472;1
6437;-472;1
6437;-472;1
6437;-472;1
6437;-472;1
6437;-472;1
6437;-472;1
6437;-472;1
6437;-472;1
6437;-472;1
6437;-472;1
6437;-472;1
6437;-461;1
6437;-513;1
6437;-507;1
6437;-519;1
6437;-512;1
6437;-466;1
6437;-455;1
6437;-511;1
6437;-502;1
6437;-526;1
6437;-497;1
6437;-496;1
6437;-496;1
6437;-496;1
6437;-496;1
6437;-496;1
6437;-496;1
6437;-496;1
6437;-496;1
6437;-496;1
6437;-496;1
6437;-496;1
6437;-496;1
6437;-496;1
6437;-520;1
6437;-496;1
6437;-455;1
6437;-448;1
6437;-515;1
6437;-507;1
6437;-543;1
6437;-475;1
6437;-454;1
6437;-469;1
6437;-531;1
6437;-499;1
6437;-538;1
6437;-539;1
6437;-519;1
6437;-503;1
6437;-540;1
6437;-529;1
6437;-529;1
6437;-529;1
6437;-529;1
6437;-529;1
6437;-529;1
6437;-529;1
6437;-529;1
6437;-529;1
6437;-529;1
6437;-529;1
6437;-529;1
6437;-529;1
6437;-539;1
6437;-531;1
6437;-523;1
6437;-526;1
6437;-519;1
6487;-472;1
6487;-463;1
6487;-526;1
6487;-509;1
6487;-527;1
6487;-504;1
6487;-465;1
6487;-459;1
6487;-518;1
6487;-505;1
6487;-527;1
6487;-502;1
6487;-517;1
6487;-510;1
6487;-529;1
6487;-510;1
6487;-533;1
6487;-515;1
6487;-550;1
6487;-501;1
6487;-553;1
6487;-489;1
6487;-467;1
6487;-492;1
6487;-548;1
6487;-479;1
6487;-526;1
6487;-508;1
6487;-501;1
6487;-537;1
6487;-497;1
6487;-536;1
6487;-536;1
6487;-512;1
6487;-467;1
6487;-504;1
6487;-519;1
6487;-466;1
6487;-511;1
6487;-511;1
6487;-522;1
6487;-514;1
6487;-459;1
6487;-457;1
6487;-522;1
6487;-497;1
6487;-524;1
6487;-500;1
6544;-461;1
6544;-456;1
6544;-513;1
6544;-498;1
6544;-522;1
6544;-497;1
6544;-490;1
6544;-490;1
6544;-490;1
6544;-490;1
6544;-490;1
6544;-490;1
6544;-490;1
6544;-490;1
6544;-490;1
6544;-490;1
6544;-490;1
6544;-490;1
6544;-490;1
6544;-540;1
6544;-478;1
6544;-488;1
6544;-545;1
6544;-492;1
6544;-542;1
6544;-474;1
6544;-520;1
6544;-505;1
6544;-462;1
6544;-494;1
6544;-525;1
6544;-462;1
6544;-515;1
6544;-498;1
6544;-457;1
6544;-496;1
6544;-512;1
6544;-455;1
6544;-503;1
6544;-502;1
6544;-456;1
6544;-513;1
6544;-504;1
6544;-460;1
6544;-515;1
6544;-502;1
6544;-457;1
6544;-520;1
6544;-498;1
6544;-461;1
6544;-519;1
6544;-494;1
6544;-455;1
6544;-513;1
6544;-490;1
6544;-527;1
6544;-501;1
6544;-458;1
6544;-521;1
6544;-513;1
6544;-549;1
6544;-476;1
6544;-529;1
6544;-509;1
6544;-484;1
6544;-537;1
6594;-496;1
6594;-545;1
6594;-546;1
6594;-520;1
6594;-502;1
6594;-537;1
6594;-471;1
6594;-466;1
6594;-523;1
6594;-507;1
6594;-508;1
6594;-524;1
6594;-471;1
6594;-471;1
6594;-471;1
6594;-471;1
6594;-471;1
6594;-471;1
6594;-471;1
6594;-471;1
6594;-471;1
6594;-471;1
6594;-471;1
6594;-471;1
6594;-471;1
6594;-466;1
6594;-525;1
6594;-504;1
6594;-531;1
6594;-505;1
6594;-533;1
6594;-514;1
6594;-532;1
6594;-509;1
6594;-530;1
6594;-512;1
6594;-480;1
6594;-480;1
6594;-480;1
6594;-480;1
6594;-480;1
6594;-480;1
6594;-480;1
6594;-480;1
6594;-480;1
6594;-480;1
6594;-480;1
6594;-480;1
6594;-480;1
6594;-487;1
6594;-545;1
6594;-478;1
6594;-465;1
6594;-480;1
6594;-538;1
6594;-474;1
6594;-523;1
6594;-505;1
6594;-458;1
6594;-490;1
6652;-519;1
6652;-458;1
6652;-516;1
6652;-506;1
6652;-509;1
6652;-519;1
6652;-459;1
6652;-463;1
6652;-520;1
6652;-513;1
6652;-466;1
6652;-526;1
6652;-514;1
6652;-469;1
6652;-523;1
6652;-520;1
6652;-465;1
6652;-526;1
6652;-525;1
6652;-525;1
6652;-525;1
6652;-525;1
6652;-525;1
6652;-525;1
6652;-525;1
6652;-525;1
6652;-525;1
6652;-525;1
6652;-525;1
6652;-525;1
6652;-525;1
6652;-502;1
6652;-523;1
6652;-507;1
6652;-476;1
6652;-538;1
6652;-492;1
6652;-547;1
6652;-481;1
6652;-462;1
6652;-489;1
6652;-538;1
6652;-497;1
6652;-540;1
6652;-536;1
6652;-520;1
6652;-473;1
6652;-504;1
6652;-533;1
6652;-469;1
6652;-523;1
6652;-510;1
6652;-464;1
6652;-505;1
6652;-509;1
6652;-461;1
6652;-518;1
6652;-507;1
6652;-520;1
6652;-508;1
6703;-452;1
6703;-450;1
6703;-507;1
6703;-490;1
6703;-457;1
6703;-515;1
6703;-522;1
6703;-522;1
6703;-522;1
6703;-522;1
6703;-522;1
6703;-522;1
6703;-522;1
6703;-522;1
6703;-522;1
6703;-522;1
6703;-522;1
6703;-522;1
6703;-522;1
6703;-491;1
6703;-520;1
6703;-502;1
6703;-469;1
6703;-536;1
6703;-485;1
6703;-541;1
6703;-535;1
6703;-522;1
6703;-490;1
6703;-533;1
6703;-471;1
6703;-469;1
6703;-522;1
6703;-509;1
6703;-502;1
6703;-540;1
6703;-462;1
6703;-462;1
6703;-462;1
6703;-462;1
6703;-462;1
6703;-462;1
6703;-462;1
6703;-462;1
6703;-462;1
6703;-462;1
6703;-462;1
6703;-462;1
6703;-462;1
6703;-460;1
6703;-514;1
6703;-505;1
6703;-519;1
6703;-509;1
6703;-529;1
6703;-529;1
6703;-529;1
6703;-529;1
6703;-529;1
6703;-529;1
6703;-529;1
6703;-529;1
6703;-529;1
6703;-529;1
6703;-529;1
6703;-529;1
6703;-529;1
6703;-516;1
6703;-540;1
6703;-514;1
6703;-537;1
6703;-515;1
6753;-549;1
6753;-530;1
6753;-553;1
6753;-542;1
6753;-502;1
6753;-514;1
6753;-573;1
6753;-497;1
6753;-535;1
6753;-529;1
6753;-526;1
6753;-468;1
6753;-497;1
6753;-434;1
6753;-508;1
6753;-504;1
6753;-515;1
6753;-569;1
6753;-532;1
6753;-562;1
6753;-663;1
6753;-683;1
6753;-671;1
6753;-729;1
6753;-758;1
6753;-723;1
6753;-788;1
6753;-803;1
6753;-777;1
6753;-834;1
6753;-835;1
6753;-718;1
6753;-645;1
6753;-739;1
6753;-696;1
6753;-756;1
6753;-733;1
6753;-690;1
6753;-726;1
6753;-703;1
6753;-623;1
6753;-581;1
6753;-622;1
6753;-578;1
6753;-560;1
6753;-507;1
6753;-541;1
6753;-519;1
6809;-391;1
6809;-348;1
6809;-305;1
6809;-311;1
6809;-355;1
6809;-338;1
6809;-467;1
6809;-467;1
6809;-467;1
6809;-467;1
6809;-467;1
6809;-467;1
6809;-467;1
6809;-467;1
6809;-467;1
6809;-467;1
6809;-467;1
6809;-467;1
6809;-467;1
6809;-513;1
6809;-595;1
6809;-541;1
6809;-537;1
6809;-553;1
6809;-475;1
6809;-551;1
6809;-561;1
6809;-564;1
6809;-580;1
6809;-568;1
6809;-590;1
6809;-575;1
6809;-596;1
6809;-570;1
6809;-588;1
6809;-576;1
6809;-597;1
6809;-533;1
6809;-579;1
6809;-573;1
6809;-509;1
6809;-559;1
6809;-550;1
6809;-550;1
6809;-550;1
6809;-550;1
6809;-550;1
6809;-550;1
6809;-550;1
6809;-550;1
6809;-550;1
6809;-550;1
6809;-550;1
6809;-550;1
6809;-550;1
6809;-541;1
6809;-605;1
6809;-526;1
6809;-581;1
6809;-557;1
6809;-598;1
6809;-528;1
6809;-495;1
6809;-559;1
6809;-542;1
6809;-581;1
6864;-519;1
6864;-493;1
6864;-549;1
6864;-552;1
6864;-553;1
6864;-581;1
6864;-540;1
6864;-540;1
6864;-540;1
6864;-540;1
6864;-540;1
6864;-540;1
6864;-540;1
6864;-540;1
6864;-540;1
6864;-540;1
6864;-540;1
6864;-540;1
6864;-540;1
6864;-722;1
6864;-746;1
6864;-660;1
6864;-578;1
6864;-616;1
6864;-585;1
6864;-521;1
6864;-570;1
6864;-544;1
6864;-500;1
6864;-563;1
6864;-533;1
6864;-502;1
6864;-563;1
6864;-500;1
6864;-497;1
6864;-557;1
6864;-499;1
6864;-553;1
6864;-551;1
6864;-528;1
6864;-503;1
6864;-542;1
6864;-468;1
6864;-460;1
6864;-517;1
6864;-500;1
6864;-451;1
6864;-489;1
6864;-521;1
6864;-467;1
6864;-518;1
6864;-500;1
6864;-510;1
6864;-513;1
6864;-516;1
6864;-515;1
6864;-520;1
6864;-508;1
6864;-524;1
6864;-508;1
6918;-526;1
6918;-505;1
6918;-520;1
6918;-499;1
6918;-452;1
6918;-516;1
6918;-526;1
6918;-526;1
6918;-526;1
6918;-526;1
6918;-526;1
6918;-526;1
6918;-526;1
6918;-526;1
6918;-526;1
6918;-526;1
6918;-526;1
6918;-526;1
6918;-526;1
6918;-517;1
6918;-547;1
6918;-476;1
6918;-457;1
6918;-470;1
6918;-516;1
6918;-516;1
6918;-516;1
6918;-516;1
6918;-516;1
6918;-516;1
6918;-516;1
6918;-516;1
6918;-516;1
6918;-516;1
6918;-516;1
6918;-516;1
6918;-516;1
6918;-455;1
6918;-507;1
6918;-490;1
6918;-490;1
6918;-519;1
6918;-455;1
6918;-449;1
6918;-516;1
6918;-491;1
6918;-499;1
6918;-514;1
6918;-514;1
6918;-510;1
6918;-515;1
6918;-511;1
6918;-521;1
6918;-499;1
6918;-522;1
6918;-502;1
6918;-522;1
6918;-513;1
6918;-453;1
6918;-520;1
6967;-507;1
6967;-464;1
6967;-522;1
6967;-508;1
6967;-463;1
6967;-453;1
6967;-517;1
6967;-492;1
6967;-515;1
6967;-511;1
6967;-542;1
6967;-489;1
6967;-534;1
6967;-470;1
6967;-518;1
6967;-502;1
6967;-484;1
6967;-533;1
6967;-499;1
6967;-534;1
6967;-537;1
6967;-518;1
6967;-468;1
6967;-506;1
6967;-518;1
6967;-518;1
6967;-518;1
6967;-518;1
6967;-518;1
6967;-518;1
6967;-518;1
6967;-518;1
6967;-518;1
6967;-518;1
6967;-518;1
6967;-518;1
6967;-518;1
6967;-508;1
6967;-512;1
6967;-512;1
6967;-530;1
6967;-512;1
6967;-466;1
6967;-462;1
6967;-524;1
6967;-509;1
6967;-538;1
6967;-517;1
6967;-539;1
6967;-514;1
6967;-539;1
6967;-507;1
6967;-465;1
6967;-460;1
6967;-522;1
6967;-497;1
6967;-527;1
6967;-524;1
6967;-551;1
6967;-497;1
7021;-549;1
7021;-479;1
7021;-530;1
7021;-515;1
7021;-500;1
7021;-549;1
7021;-510;1
7021;-551;1
7021;-546;1
7021;-525;1
7021;-514;1
7021;-530;1
7021;-522;1
7021;-537;1
7021;-538;1
7021;-520;1
7021;-523;1
7021;-521;1
7021;-472;1
7021;-457;1
7021;-517;1
7021;-508;1
7021;-533;1
7021;-508;1
7021;-471;1
7021;-461;1
7021;-529;1
7021;-511;1
7021;-533;1
7021;-501;1
7021;-461;1
7021;-452;1
7021;-514;1
7021;-494;1
7021;-455;1
7021;-515;1
7021;-503;1
7021;-537;1
7021;-469;1
7021;-452;1
7021;-447;1
7021;-471;1
7021;-527;1
7021;-457;1
7021;-514;1
7021;-505;1
7021;-458;1
7021;-483;1
7072;-520;1
7072;-458;1
7072;-503;1
7072;-489;1
7072;-448;1
7072;-488;1
7072;-504;1
7072;-451;1
7072;-503;1
7072;-483;1
7072;-441;1
7072;-500;1
7072;-503;1
7072;-449;1
7072;-504;1
7072;-494;1
7072;-508;1
7072;-498;1
7072;-447;1
7072;-443;1
7072;-503;1
7072;-486;1
7072;-444;1
7072;-505;1
7072;-480;1
7072;-443;1
7072;-499;1
7072;-482;1
7072;-441;1
7072;-442;1
7072;-505;1
7072;-484;1
7072;-513;1
7072;-490;1
7072;-450;1
7072;-470;1
7072;-526;1
7072;-457;1
7072;-514;1
7072;-491;1
7072;-475;1
7072;-517;1
7072;-453;1
7072;-449;1
7072;-506;1
7072;-489;1
7072;-442;1
7072;-483;1
7072;-499;1
7072;-444;1
7072;-500;1
7072;-484;1
7072;-445;1
7072;-502;1
7124;-521;1
7124;-521;1
7124;-521;1
7124;-521;1
7124;-521;1
7124;-521;1
7124;-521;1
7124;-521;1
7124;-521;1
7124;-521;1
7124;-521;1
7124;-521;1
7124;-521;1
7124;-498;1
7124;-515;1
7124;-505;1
7124;-524;1
7124;-503;1
7124;-524;1
7124;-503;1
7124;-533;1
7124;-510;1
7124;-538;1
7124;-514;1
7124;-470;1
7124;-464;1
7124;-527;1
7124;-508;1
7124;-468;1
7124;-486;1
7124;-541;1
7124;-466;1
7124;-514;1
7124;-499;1
7124;-457;1
7124;-482;1
7124;-525;1
7124;-460;1
7124;-509;1
7124;-493;1
7124;-452;1
7124;-497;1
7124;-517;1
7124;-457;1
7124;-514;1
7124;-506;1
7124;-515;1
7124;-512;1
7124;-514;1
7124;-508;1
7124;-519;1
7124;-514;1
7124;-466;1
7124;-525;1
7176;-501;1
7176;-457;1
7176;-512;1
7176;-496;1
7176;-521;1
7176;-499;1
7176;-526;1
7176;-507;1
7176;-528;1
7176;-513;1
7176;-467;1
7176;-478;1
7176;-537;1
7176;-481;1
7176;-528;1
7176;-527;1
7176;-554;1
7176;-503;1
7176;-550;1
7176;-481;1
7176;-526;1
7176;-512;1
7176;-497;1
7176;-530;1
7176;-469;1
7176;-460;1
7176;-523;1
7176;-502;1
7176;-462;1
7176;-502;1
7176;-523;1
7176;-523;1
7176;-523;1
7176;-523;1
7176;-523;1
7176;-523;1
7176;-523;1
7176;-523;1
7176;-523;1
7176;-523;1
7176;-523;1
7176;-523;1
7176;-523;1
7176;-507;1
7176;-514;1
7176;-511;1
7176;-529;1
7176;-500;1
7176;-456;1
7176;-452;1
7176;-514;1
7176;-498;1
7176;-527;1
7176;-500;1
7176;-458;1
7176;-456;1
7176;-511;1
7176;-495;1
7176;-517;1
7176;-512;1
7227;-548;1
7227;-477;1
7227;-519;1
7227;-507;1
7227;-481;1
7227;-536;1
7227;-493;1
7227;-536;1
7227;-532;1
7227;-516;1
7227;-495;1
7227;-538;1
7227;-510;1
7227;-542;1
7227;-539;1
7227;-518;1
7227;-476;1
7227;-512;1
7227;-525;1
7227;-525;1
7227;-525;1
7227;-525;1
7227;-525;1
7227;-525;1
7227;-525;1
7227;-525;1
7227;-525;1
7227;-525;1
7227;-525;1
7227;-525;1
7227;-525;1
7227;-514;1
7227;-519;1
7227;-511;1
7227;-465;1
7227;-526;1
7227;-543;1
7227;-543;1
7227;-543;1
7227;-543;1
7227;-543;1
7227;-543;1
7227;-543;1
7227;-543;1
7227;-543;1
7227;-543;1
7227;-543;1
7227;-543;1
7227;-543;1
7227;-514;1
7227;-541;1
7227;-514;1
7227;-482;1
7227;-549;1
7280;-543;1
7280;-543;1
7280;-543;1
7280;-543;1
7280;-543;1
7280;-543;1
7280;-543;1
7280;-543;1
7280;-543;1
7280;-543;1
7280;-543;1
7280;-543;1
7280;-543;1
7280;-475;1
7280;-526;1
7280;-510;1
7280;-501;1
7280;-545;1
7280;-464;1
7280;-464;1
7280;-464;1
7280;-464;1
7280;-464;1
7280;-464;1
7280;-464;1
7280;-464;1
7280;-464;1
7280;-464;1
7280;-464;1
7280;-464;1
7280;-464;1
7280;-462;1
7280;-521;1
7280;-500;1
7280;-516;1
7280;-510;1
7280;-463;1
7280;-455;1
7280;-514;1
7280;-505;1
7280;-532;1
7280;-506;1
7280;-520;1
7280;-520;1
7280;-520;1
7280;-520;1
7280;-520;1
7280;-520;1
7280;-520;1
7280;-520;1
7280;-520;1
7280;-520;1
7280;-520;1
7280;-520;1
7280;-520;1
7280;-512;1
7280;-533;1
7280;-513;1
7280;-466;1
7280;-472;1
7280;-539;1
7280;-473;1
7280;-518;1
7280;-504;1
7280;-481;1
7280;-539;1
7280;-501;1
7280;-541;1
7280;-544;1
7280;-521;1
7280;-476;1
7280;-506;1
7335;-519;1
7335;-519;1
7335;-519;1
7335;-519;1
7335;-519;1
7335;-519;1
7335;-519;1
7335;-519;1
7335;-519;1
7335;-519;1
7335;-519;1
7335;-519;1
7335;-519;1
7335;-522;1
7335;-527;1
7335;-509;1
7335;-525;1
7335;-517;1
7335;-510;1
7335;-510;1
7335;-510;1
7335;-510;1
7335;-510;1
7335;-510;1
7335;-510;1
7335;-510;1
7335;-510;1
7335;-510;1
7335;-510;1
7335;-510;1
7335;-510;1
7335;-472;1
7335;-529;1
7335;-506;1
7335;-526;1
7335;-511;1
7335;-525;1
7335;-505;1
7335;-526;1
7335;-516;1
7335;-480;1
7335;-544;1
7335;-475;1
7335;-483;1
7335;-542;1
7335;-499;1
7335;-547;1
7335;-503;1
7335;-549;1
7335;-480;1
7335;-530;1
7335;-521;1
7335;-509;1
7335;-538;1
7335;-512;1
7335;-512;1
7335;-512;1
7335;-512;1
7335;-512;1
7335;-512;1
7335;-512;1
7335;-512;1
7335;-512;1
7335;-512;1
7335;-512;1
7335;-512;1
7335;-512;1
7335;-524;1
7335;-531;1
7335;-512;1
7335;-530;1
7335;-526;1
7381;-472;1
7381;-470;1
7381;-529;1
7381;-522;1
7381;-472;1
7381;-535;1
7381;-505;1
7381;-473;1
7381;-520;1
7381;-509;1
7381;-465;1
7381;-456;1
7381;-546;1
7381;-546;1
7381;-546;1
7381;-546;1
7381;-546;1
7381;-546;1
7381;-546;1
7381;-546;1
7381;-546;1
7381;-546;1
7381;-546;1
7381;-546;1
7381;-546;1
7381;-488;1
7381;-534;1
7381;-521;1
7381;-474;1
7381;-499;1
7381;-543;1
7381;-477;1
7381;-527;1
7381;-512;1
7381;-502;1
7381;-530;1
7381;-466;1
7381;-461;1
7381;-524;1
7381;-504;1
7381;-458;1
7381;-504;1
7381;-517;1
7381;-464;1
7381;-528;1
7381;-510;1
7381;-526;1
7381;-523;1
7381;-543;1
7381;-525;1
7381;-537;1
7381;-533;1
7381;-478;1
7381;-529;1
7431;-517;1
7431;-478;1
7431;-526;1
7431;-510;1
7431;-465;1
7431;-529;1
7431;-507;1
7431;-533;1
7431;-510;1
7431;-472;1
7431;-464;1
7431;-482;1
7431;-538;1
7431;-478;1
7431;-524;1
7431;-508;1
7431;-465;1
7431;-488;1
7431;-541;1
7431;-464;1
7431;-520;1
7431;-507;1
7431;-468;1
7431;-497;1
7431;-529;1
7431;-464;1
7431;-517;1
7431;-501;1
7431;-501;1
7431;-518;1
7431;-457;1
7431;-457;1
7431;-457;1
7431;-457;1
7431;-457;1
7431;-457;1
7431;-457;1
7431;-457;1
7431;-457;1
7431;-457;1
7431;-457;1
7431;-457;1
7431;-457;1
7431;-452;1
7431;-503;1
7431;-501;1
7431;-521;1
7431;-496;1
7431;-454;1
7431;-450;1
7431;-511;1
7431;-492;1
7431;-458;1
7431;-515;1
7431;-495;1
7431;-454;1
7431;-516;1
7431;-496;1
7431;-454;1
7431;-473;1
7487;-540;1
7487;-463;1
7487;-516;1
7487;-497;1
7487;-460;1
7487;-480;1
7487;-525;1
7487;-466;1
7487;-516;1
7487;-497;1
7487;-491;1
7487;-523;1
7487;-521;1
7487;-521;1
7487;-521;1
7487;-521;1
7487;-521;1
7487;-521;1
7487;-521;1
7487;-521;1
7487;-521;1
7487;-521;1
7487;-521;1
7487;-521;1
7487;-521;1
7487;-467;1
7487;-523;1
7487;-510;1
7487;-530;1
7487;-512;1
7487;-466;1
7487;-461;1
7487;-512;1
7487;-510;1
7487;-529;1
7487;-505;1
7487;-526;1
7487;-526;1
7487;-526;1
7487;-526;1
7487;-526;1
7487;-526;1
7487;-526;1
7487;-526;1
7487;-526;1
7487;-526;1
7487;-526;1
7487;-526;1
7487;-526;1
7487;-505;1
7487;-536;1
7487;-538;1
7487;-573;1
7487;-526;1
7537;-451;1
7537;-451;1
7537;-451;1
7537;-451;1
7537;-451;1
7537;-451;1
7537;-451;1
7537;-451;1
7537;-451;1
7537;-451;1
7537;-451;1
7537;-451;1
7537;-451;1
7537;-487;1
7537;-500;1
7537;-495;1
7537;-500;1
7537;-563;1
7537;-561;1
7537;-611;1
7537;-656;1
7537;-671;1
7537;-704;1
7537;-742;1
7537;-753;1
7537;-783;1
7537;-811;1
7537;-806;1
7537;-784;1
7537;-853;1
7537;-837;1
7537;-727;1
7537;-757;1
7537;-817;1
7537;-754;1
7537;-801;1
7537;-718;1
7537;-725;1
7537;-771;1
7537;-744;1
7537;-674;1
7537;-630;1
7537;-662;1
7537;-629;1
7537;-625;1
7537;-579;1
7537;-499;1
7537;-525;1
7537;-506;1
7537;-482;1
7537;-456;1
7537;-386;1
7537;-236;1
7537;-319;1
7537;-394;1
7537;-346;1
7537;-402;1
7537;-409;1
7537;-379;1
7537;-418;1
7588;-538;1
7588;-538;1
7588;-538;1
7588;-538;1
7588;-538;1
7588;-538;1
7588;-538;1
7588;-538;1
7588;-538;1
7588;-538;1
7588;-538;1
7588;-538;1
7588;-538;1
7588;-555;1
7588;-479;1
7588;-549;1
7588;-499;1
7588;-555;1
7588;-505;1
7588;-505;1
7588;-505;1
7588;-505;1
7588;-505;1
7588;-505;1
7588;-505;1
7588;-505;1
7588;-505;1
7588;-505;1
7588;-505;1
7588;-505;1
7588;-505;1
7588;-489;1
7588;-625;1
7588;-564;1
7588;-503;1
7588;-558;1
7588;-468;1
7588;-497;1
7588;-554;1
7588;-564;1
7588;-602;1
7588;-559;1
7588;-612;1
7588;-540;1
7588;-588;1
7588;-579;1
7588;-518;1
7588;-533;1
7588;-666;1
7588;-555;1
7588;-596;1
7588;-577;1
7588;-482;1
7588;-585;1
7588;-563;1
7588;-594;1
7588;-603;1
7588;-590;1
7588;-591;1
7588;-608;1
7588;-537;1
7588;-529;1
7588;-582;1
7588;-575;1
7588;-664;1
7588;-609;1
7639;-614;1
7639;-595;1
7639;-648;1
7639;-731;1
7639;-681;1
7639;-623;1
7639;-556;1
7639;-537;1
7639;-593;1
7639;-556;1
7639;-570;1
7639;-539;1
7639;-559;1
7639;-536;1
7639;-561;1
7639;-540;1
7639;-489;1
7639;-502;1
7639;-556;1
7639;-476;1
7639;-527;1
7639;-507;1
7639;-462;1
7639;-487;1
7639;-500;1
7639;-500;1
7639;-500;1
7639;-500;1
7639;-500;1
7639;-500;1
7639;-500;1
7639;-500;1
7639;-500;1
7639;-500;1
7639;-500;1
7639;-500;1
7639;-500;1
7639;-524;1
7639;-528;1
7639;-510;1
7639;-517;1
7639;-528;1
7639;-525;1
7639;-525;1
7639;-525;1
7639;-525;1
7639;-525;1
7639;-525;1
7639;-525;1
7639;-525;1
7639;-525;1
7639;-525;1
7639;-525;1
7639;-525;1
7639;-525;1
7639;-503;1
7639;-519;1
7639;-508;1
7639;-520;1
7639;-500;1
7689;-523;1
7689;-501;1
7689;-522;1
7689;-509;1
7689;-527;1
7689;-507;1
7689;-463;1
7689;-462;1
7689;-518;1
7689;-514;1
7689;-539;1
7689;-487;1
7689;-533;1
7689;-467;1
7689;-513;1
7689;-496;1
7689;-475;1
7689;-515;1
7689;-482;1
7689;-523;1
7689;-527;1
7689;-511;1
7689;-462;1
7689;-488;1
7689;-522;1
7689;-462;1
7689;-515;1
7689;-503;1
7689;-505;1
7689;-508;1
7689;-455;1
7689;-453;1
7689;-513;1
7689;-491;1
7689;-444;1
7689;-508;1
7689;-485;1
7689;-448;1
7689;-500;1
7689;-487;1
7689;-512;1
7689;-492;1
7689;-447;1
7689;-441;1
7689;-504;1
7689;-505;1
7689;-454;1
7689;-523;1
7689;-491;1
7689;-517;1
7689;-493;1
7689;-453;1
7689;-447;1
7689;-469;1
7744;-531;1
7744;-452;1
7744;-504;1
7744;-523;1
7744;-538;1
7744;-496;1
7744;-534;1
7744;-467;1
7744;-525;1
7744;-502;1
7744;-461;1
7744;-500;1
7744;-511;1
7744;-511;1
7744;-511;1
7744;-511;1
7744;-511;1
7744;-511;1
7744;-511;1
7744;-511;1
7744;-511;1
7744;-511;1
7744;-511;1
7744;-511;1
7744;-511;1
7744;-457;1
7744;-514;1
7744;-494;1
7744;-515;1
7744;-496;1
7744;-454;1
7744;-451;1
7744;-507;1
7744;-499;1
7744;-521;1
7744;-506;1
7744;-526;1
7744;-516;1
7744;-533;1
7744;-512;1
7744;-534;1
7744;-512;1
7744;-524;1
7744;-510;1
7744;-527;1
7744;-527;1
7744;-554;1
7744;-491;1
7744;-540;1
7744;-478;1
7744;-524;1
7744;-507;1
7744;-499;1
7744;-544;1
7798;-508;1
7798;-542;1
7798;-534;1
7798;-530;1
7798;-480;1
7798;-509;1
7798;-514;1
7798;-514;1
7798;-514;1
7798;-514;1
7798;-514;1
7798;-514;1
7798;-514;1
7798;-514;1
7798;-514;1
7798;-514;1
7798;-514;1
7798;-514;1
7798;-514;1
7798;-505;1
7798;-514;1
7798;-498;1
7798;-522;1
7798;-508;1
7798;-527;1
7798;-509;1
7798;-525;1
7798;-516;1
7798;-527;1
7798;-521;1
7798;-470;1
7798;-457;1
7798;-521;1
7798;-499;1
7798;-529;1
7798;-507;1
7798;-529;1
7798;-514;1
7798;-541;1
7798;-472;1
7798;-474;1
7798;-532;1
7798;-489;1
7798;-540;1
7798;-539;1
7798;-517;1
7798;-492;1
7798;-537;1
7798;-475;1
7798;-460;1
7798;-518;1
7798;-500;1
7798;-489;1
7798;-512;1
7798;-452;1
7798;-449;1
7798;-503;1
7798;-481;1
7798;-438;1
7798;-489;1
7848;-484;1
7848;-434;1
7848;-494;1
7848;-480;1
7848;-505;1
7848;-484;1
7848;-438;1
7848;-439;1
7848;-499;1
7848;-498;1
7848;-447;1
7848;-508;1
7848;-479;1
7848;-441;1
7848;-495;1
7848;-481;1
7848;-443;1
7848;-496;1
7848;-509;1
7848;-509;1
7848;-509;1
7848;-509;1
7848;-509;1
7848;-509;1
7848;-509;1
7848;-509;1
7848;-509;1
7848;-509;1
7848;-509;1
7848;-509;1
7848;-509;1
7848;-452;1
7848;-501;1
7848;-490;1
7848;-476;1
7848;-517;1
7848;-454;1
7848;-454;1
7848;-454;1
7848;-454;1
7848;-454;1
7848;-454;1
7848;-454;1
7848;-454;1
7848;-454;1
7848;-454;1
7848;-454;1
7848;-454;1
7848;-454;1
7848;-445;1
7848;-504;1
7848;-487;1
7848;-500;1
7848;-505;1
7848;-524;1
7848;-524;1
7848;-524;1
7848;-524;1
7848;-524;1
7848;-524;1
7848;-524;1
7848;-524;1
7848;-524;1
7848;-524;1
7848;-524;1
7848;-524;1
7848;-524;1
7848;-501;1
7848;-512;1
7848;-506;1
7848;-525;1
7848;-512;1
7904;-530;1
7904;-499;1
7904;-514;1
7904;-499;1
7904;-456;1
7904;-523;1
7904;-493;1
7904;-466;1
7904;-529;1
7904;-469;1
7904;-471;1
7904;-530;1
7904;-488;1
7904;-522;1
7904;-530;1
7904;-508;1
7904;-490;1
7904;-531;1
7904;-463;1
7904;-454;1
7904;-514;1
7904;-491;1
7904;-446;1
7904;-485;1
7904;-509;1
7904;-450;1
7904;-515;1
7904;-499;1
7904;-506;1
7904;-510;1
7904;-507;1
7904;-507;1
7904;-507;1
7904;-507;1
7904;-507;1
7904;-507;1
7904;-507;1
7904;-507;1
7904;-507;1
7904;-507;1
7904;-507;1
7904;-507;1
7904;-507;1
7904;-459;1
7904;-509;1
7904;-502;1
7904;-524;1
7904;-504;1
7904;-452;1
7904;-450;1
7904;-512;1
7904;-489;1
7904;-514;1
7904;-506;1
7954;-541;1
7954;-476;1
7954;-518;1
7954;-500;1
7954;-462;1
7954;-481;1
7954;-535;1
7954;-465;1
7954;-511;1
7954;-495;1
7954;-453;1
7954;-483;1
7954;-519;1
7954;-461;1
7954;-514;1
7954;-500;1
7954;-499;1
7954;-518;1
7954;-508;1
7954;-517;1
7954;-522;1
7954;-508;1
7954;-523;1
7954;-512;1
7954;-535;1
7954;-535;1
7954;-535;1
7954;-535;1
7954;-535;1
7954;-535;1
7954;-535;1
7954;-535;1
7954;-535;1
7954;-535;1
7954;-535;1
7954;-535;1
7954;-535;1
7954;-507;1
7954;-521;1
7954;-514;1
7954;-529;1
7954;-509;1
7954;-463;1
7954;-456;1
7954;-514;1
7954;-502;1
7954;-459;1
7954;-467;1
7954;-536;1
7954;-471;1
7954;-510;1
7954;-500;1
7954;-472;1
7954;-526;1
8007;-487;1
8007;-535;1
8007;-535;1
8007;-508;1
8007;-462;1
8007;-486;1
8007;-524;1
8007;-456;1
8007;-510;1
8007;-491;1
8007;-496;1
8007;-525;1
8007;-458;1
8007;-458;1
8007;-458;1
8007;-458;1
8007;-458;1
8007;-458;1
8007;-458;1
8007;-458;1
8007;-458;1
8007;-458;1
8007;-458;1
8007;-458;1
8007;-458;1
8007;-456;1
8007;-515;1
8007;-503;1
8007;-521;1
8007;-498;1
8007;-451;1
8007;-448;1
8007;-506;1
8007;-502;1
8007;-453;1
8007;-510;1
8007;-484;1
8007;-484;1
8007;-484;1
8007;-484;1
8007;-484;1
8007;-484;1
8007;-484;1
8007;-484;1
8007;-484;1
8007;-484;1
8007;-484;1
8007;-484;1
8007;-484;1
8007;-536;1
8007;-474;1
8007;-455;1
8007;-473;1
8007;-532;1
8007;-486;1
8007;-538;1
8007;-528;1
8007;-506;1
8007;-491;1
8007;-532;1
8057;-500;1
8057;-531;1
8057;-528;1
8057;-510;1
8057;-462;1
8057;-498;1
8057;-517;1
8057;-517;1
8057;-517;1
8057;-517;1
8057;-517;1
8057;-517;1
8057;-517;1
8057;-517;1
8057;-517;1
8057;-517;1
8057;-517;1
8057;-517;1
8057;-517;1
8057;-505;1
8057;-523;1
8057;-505;1
8057;-464;1
8057;-521;1
8057;-500;1
8057;-500;1
8057;-500;1
8057;-500;1
8057;-500;1
8057;-500;1
8057;-500;1
8057;-500;1
8057;-500;1
8057;-500;1
8057;-500;1
8057;-500;1
8057;-500;1
8057;-528;1
8057;-497;1
8057;-460;1
8057;-520;1
8057;-506;1
8057;-531;1
8057;-468;1
8057;-513;1
8057;-500;1
8057;-457;1
8057;-477;1
8057;-525;1
8057;-460;1
8057;-514;1
8057;-500;1
8057;-448;1
8057;-478;1
8057;-510;1
8057;-456;1
8057;-508;1
8057;-495;1
8057;-439;1
8057;-487;1
8057;-502;1
8057;-449;1
8057;-506;1
8057;-495;1
8057;-502;1
8057;-502;1
8057;-512;1
8057;-494;1
8057;-516;1
8057;-504;1
8057;-524;1
8057;-501;1
8113;-490;1
8113;-490;1
8113;-490;1
8113;-490;1
8113;-490;1
8113;-490;1
8113;-490;1
8113;-490;1
8113;-490;1
8113;-490;1
8113;-490;1
8113;-490;1
8113;-490;1
8113;-513;1
8113;-504;1
8113;-456;1
8113;-522;1
8113;-515;1
8113;-538;1
8113;-472;1
8113;-514;1
8113;-502;1
8113;-458;1
8113;-478;1
8113;-533;1
8113;-467;1
8113;-519;1
8113;-500;1
8113;-489;1
8113;-526;1
8113;-463;1
8113;-454;1
8113;-514;1
8113;-496;1
8113;-504;1
8113;-512;1
8113;-505;1
8113;-519;1
8113;-522;1
8113;-506;1
8113;-459;1
8113;-519;1
8113;-504;1
8113;-455;1
8113;-520;1
8113;-504;1
8113;-527;1
8113;-511;1
8165;-513;1
8165;-513;1
8165;-513;1
8165;-513;1
8165;-513;1
8165;-513;1
8165;-513;1
8165;-513;1
8165;-513;1
8165;-513;1
8165;-513;1
8165;-513;1
8165;-513;1
8165;-497;1
8165;-515;1
8165;-494;1
8165;-456;1
8165;-463;1
8165;-527;1
8165;-460;1
8165;-514;1
8165;-495;1
8165;-446;1
8165;-473;1
8165;-538;1
8165;-469;1
8165;-519;1
8165;-498;1
8165;-487;1
8165;-526;1
8165;-502;1
8165;-524;1
8165;-531;1
8165;-513;1
8165;-511;1
8165;-524;1
8165;-468;1
8165;-456;1
8165;-526;1
8165;-514;1
8165;-469;1
8165;-521;1
8165;-508;1
8165;-467;1
8165;-521;1
8165;-505;1
8165;-468;1
8165;-522;1
8165;-500;1
8165;-457;1
8165;-504;1
8165;-516;1
8165;-462;1
8165;-463;1
8165;-517;1
8165;-496;1
8165;-517;1
8165;-498;1
8165;-455;1
8165;-469;1
8165;-539;1
8165;-473;1
8165;-523;1
8165;-504;1
8165;-483;1
8165;-530;1
8219;-474;1
8219;-474;1
8219;-474;1
8219;-474;1
8219;-474;1
8219;-474;1
8219;-474;1
8219;-474;1
8219;-474;1
8219;-474;1
8219;-474;1
8219;-474;1
8219;-474;1
8219;-456;1
8219;-512;1
8219;-496;1
8219;-502;1
8219;-514;1
8219;-522;1
8219;-522;1
8219;-522;1
8219;-522;1
8219;-522;1
8219;-522;1
8219;-522;1
8219;-522;1
8219;-522;1
8219;-522;1
8219;-522;1
8219;-522;1
8219;-522;1
8219;-501;1
8219;-523;1
8219;-512;1
8219;-529;1
8219;-512;1
8219;-462;1
8219;-457;1
8219;-516;1
8219;-509;1
8219;-456;1
8219;-524;1
8219;-501;1
8219;-527;1
8219;-502;1
8219;-461;1
8219;-459;1
8219;-471;1
8219;-533;1
8219;-467;1
8219;-523;1
8219;-507;1
8219;-465;1
8219;-479;1
8270;-457;1
8270;-457;1
8270;-457;1
8270;-457;1
8270;-457;1
8270;-457;1
8270;-457;1
8270;-457;1
8270;-457;1
8270;-457;1
8270;-457;1
8270;-457;1
8270;-457;1
8270;-453;1
8270;-515;1
8270;-502;1
8270;-500;1
8270;-514;1
8270;-507;1
8270;-513;1
8270;-523;1
8270;-507;1
8270;-526;1
8270;-517;1
8270;-472;1
8270;-465;1
8270;-519;1
8270;-503;1
8270;-457;1
8270;-521;1
8270;-502;1
8270;-461;1
8270;-515;1
8270;-508;1
8270;-463;1
8270;-470;1
8270;-540;1
8270;-518;1
8270;-539;1
8270;-529;1
8270;-491;1
8270;-541;1
8270;-475;1
8270;-514;1
8270;-505;1
8270;-504;1
8270;-519;1
8270;-480;1
8270;-534;1
8270;-491;1
8270;-553;1
8270;-567;1
8270;-595;1
8270;-661;1
8270;-669;1
8270;-713;1
8270;-734;1
8270;-728;1
8270;-746;1
8270;-776;1
8325;-749;1
8325;-749;1
8325;-749;1
8325;-749;1
8325;-749;1
8325;-749;1
8325;-749;1
8325;-749;1
8325;-749;1
8325;-749;1
8325;-749;1
8325;-749;1
8325;-749;1
8325;-586;1
8325;-692;1
8325;-694;1
8325;-828;1
8325;-751;1
8325;-660;1
8325;-608;1
8325;-558;1
8325;-615;1
8325;-537;1
8325;-572;1
8325;-536;1
8325;-518;1
8325;-462;1
8325;-369;1
8325;-322;1
8325;-303;1
8325;-345;1
8325;-286;1
8325;-424;1
8325;-399;1
8325;-379;1
8325;-442;1
8325;-346;1
8325;-477;1
8325;-489;1
8325;-481;1
8325;-476;1
8325;-525;1
8325;-515;1
8325;-545;1
8325;-552;1
8325;-543;1
8325;-554;1
8325;-575;1
8325;-649;1
8325;-614;1
8325;-610;1
8325;-593;1
8325;-461;1
8325;-575;1
8325;-570;1
8325;-509;1
8325;-566;1
8325;-561;1
8325;-583;1
8325;-564;1
8380;-592;1
8380;-592;1
8380;-592;1
8380;-592;1
8380;-592;1
8380;-592;1
8380;-592;1
8380;-592;1
8380;-592;1
8380;-592;1
8380;-592;1
8380;-592;1
8380;-592;1
8380;-574;1
8380;-520;1
8380;-576;1
8380;-542;1
8380;-605;1
8380;-559;1
8380;-616;1
8380;-636;1
8380;-645;1
8380;-661;1
8380;-609;1
8380;-644;1
8380;-566;1
8380;-677;1
8380;-623;1
8380;-587;1
8380;-618;1
8380;-588;1
8380;-588;1
8380;-588;1
8380;-588;1
8380;-588;1
8380;-588;1
8380;-588;1
8380;-588;1
8380;-588;1
8380;-588;1
8380;-588;1
8380;-588;1
8380;-588;1
8380;-594;1
8380;-730;1
8380;-737;1
8380;-607;1
8380;-642;1
8380;-601;1
8380;-541;1
8380;-583;1
8380;-556;1
8380;-502;1
8380;-555;1
8380;-528;1
8380;-485;1
8380;-544;1
8380;-531;1
8380;-545;1
8380;-524;1
8380;-540;1
8380;-495;1
8380;-533;1
8380;-499;1
8380;-482;1
8380;-545;1
8380;-500;1
8380;-550;1
8380;-540;1
8380;-517;1
8380;-485;1
8380;-545;1
8432;-504;1
8432;-540;1
8432;-537;1
8432;-518;1
8432;-511;1
8432;-539;1
8432;-474;1
8432;-453;1
8432;-517;1
8432;-502;1
8432;-454;1
8432;-503;1
8432;-505;1
8432;-453;1
8432;-510;1
8432;-488;1
8432;-505;1
8432;-491;1
8432;-510;1
8432;-491;1
8432;-515;1
8432;-495;1
8432;-523;1
8432;-495;1
8432;-521;1
8432;-505;1
8432;-517;1
8432;-514;1
8432;-532;1
8432;-510;1
8432;-532;1
8432;-532;1
8432;-532;1
8432;-532;1
8432;-532;1
8432;-532;1
8432;-532;1
8432;-532;1
8432;-532;1
8432;-532;1
8432;-532;1
8432;-532;1
8432;-532;1
8432;-461;1
8432;-507;1
8432;-490;1
8432;-475;1
8432;-526;1
8487;-523;1
8487;-523;1
8487;-523;1
8487;-523;1
8487;-523;1
8487;-523;1
8487;-523;1
8487;-523;1
8487;-523;1
8487;-523;1
8487;-523;1
8487;-523;1
8487;-523;1
8487;-458;1
8487;-507;1
8487;-492;1
8487;-501;1
8487;-508;1
8487;-452;1
8487;-443;1
8487;-509;1
8487;-488;1
8487;-508;1
8487;-490;1
8487;-510;1
8487;-495;1
8487;-518;1
8487;-505;1
8487;-528;1
8487;-507;1
8487;-534;1
8487;-510;1
8487;-513;1
8487;-511;1
8487;-459;1
8487;-448;1
8487;-517;1
8487;-494;1
8487;-516;1
8487;-491;1
8487;-443;1
8487;-465;1
8487;-526;1
8487;-458;1
8487;-507;1
8487;-494;1
8487;-481;1
8487;-527;1
8487;-496;1
8487;-530;1
8487;-526;1
8487;-510;1
8487;-463;1
8487;-504;1
8487;-523;1
8487;-463;1
8487;-524;1
8487;-502;1
8487;-456;1
8487;-508;1
8538;-457;1
8538;-457;1
8538;-457;1
8538;-457;1
8538;-457;1
8538;-457;1
8538;-457;1
8538;-457;1
8538;-457;1
8538;-457;1
8538;-457;1
8538;-457;1
8538;-457;1
8538;-459;1
8538;-520;1
8538;-501;1
8538;-461;1
8538;-521;1
8538;-508;1
8538;-508;1
8538;-508;1
8538;-508;1
8538;-508;1
8538;-508;1
8538;-508;1
8538;-508;1
8538;-508;1
8538;-508;1
8538;-508;1
8538;-508;1
8538;-508;1
8538;-485;1
8538;-516;1
8538;-494;1
8538;-462;1
8538;-526;1
8538;-477;1
8538;-531;1
8538;-534;1
8538;-510;1
8538;-460;1
8538;-490;1
8538;-525;1
8538;-459;1
8538;-518;1
8538;-496;1
8538;-496;1
8538;-516;1
8538;-452;1
8538;-445;1
8538;-500;1
8538;-493;1
8538;-507;1
8538;-502;1
8538;-448;1
8538;-445;1
8538;-502;1
8538;-491;1
8538;-449;1
8538;-513;1
8538;-486;1
8538;-450;1
8538;-510;1
8538;-492;1
8538;-450;1
8538;-499;1
8589;-495;1
8589;-495;1
8589;-495;1
8589;-495;1
8589;-495;1
8589;-495;1
8589;-495;1
8589;-495;1
8589;-495;1
8589;-495;1
8589;-495;1
8589;-495;1
8589;-495;1
8589;-524;1
8589;-459;1
8589;-444;1
8589;-445;1
8589;-465;1
8589;-521;1
8589;-457;1
8589;-499;1
8589;-490;1
8589;-446;1
8589;-469;1
8589;-510;1
8589;-439;1
8589;-495;1
8589;-491;1
8589;-443;1
8589;-480;1
8589;-494;1
8589;-494;1
8589;-494;1
8589;-494;1
8589;-494;1
8589;-494;1
8589;-494;1
8589;-494;1
8589;-494;1
8589;-494;1
8589;-494;1
8589;-494;1
8589;-494;1
8589;-449;1
8589;-502;1
8589;-486;1
8589;-507;1
8589;-483;1
8589;-439;1
8589;-442;1
8589;-502;1
8589;-483;1
8589;-502;1
8589;-487;1
8589;-433;1
8589;-432;1
8589;-486;1
8589;-483;1
8589;-438;1
8589;-496;1
8589;-493;1
8589;-526;1
8589;-462;1
8589;-436;1
8589;-458;1
8589;-518;1
8645;-475;1
8645;-526;1
8645;-533;1
8645;-505;1
8645;-490;1
8645;-528;1
8645;-492;1
8645;-525;1
8645;-527;1
8645;-503;1
8645;-500;1
8645;-516;1
8645;-505;1
8645;-515;1
8645;-519;1
8645;-509;1
8645;-517;1
8645;-511;1
8645;-523;1
8645;-513;1
8645;-527;1
8645;-505;1
8645;-535;1
8645;-513;1
8645;-531;1
8645;-510;1
8645;-524;1
8645;-514;1
8645;-528;1
8645;-507;1
8645;-465;1
8645;-456;1
8645;-517;1
8645;-507;1
8645;-457;1
8645;-518;1
8645;-520;1
8645;-556;1
8645;-482;1
8645;-462;1
8645;-473;1
8645;-533;1
8645;-483;1
8645;-532;1
8645;-529;1
8645;-512;1
8645;-494;1
8645;-533;1
8645;-494;1
8645;-535;1
8645;-535;1
8645;-509;1
8645;-466;1
8645;-501;1
8696;-522;1
8696;-463;1
8696;-522;1
8696;-507;1
8696;-466;1
8696;-513;1
8696;-508;1
8696;-460;1
8696;-522;1
8696;-503;1
8696;-524;1
8696;-506;1
8696;-525;1
8696;-500;1
8696;-522;1
8696;-508;1
8696;-526;1
8696;-504;1
8696;-463;1
8696;-461;1
8696;-522;1
8696;-511;1
8696;-532;1
8696;-522;1
8696;-549;1
8696;-483;1
8696;-529;1
8696;-512;1
8696;-471;1
8696;-487;1
8696;-533;1
8696;-468;1
8696;-517;1
8696;-501;1
8696;-490;1
8696;-527;1
8696;-498;1
8696;-531;1
8696;-535;1
8696;-513;1
8696;-506;1
8696;-536;1
8696;-465;1
8696;-461;1
8696;-524;1
8696;-503;1
8696;-461;1
8696;-516;1
8749;-506;1
8749;-462;1
8749;-520;1
8749;-506;1
8749;-525;1
8749;-501;1
8749;-459;1
8749;-454;1
8749;-513;1
8749;-499;1
8749;-457;1
8749;-446;1
8749;-514;1
8749;-501;1
8749;-516;1
8749;-507;1
8749;-524;1
8749;-514;1
8749;-549;1
8749;-482;1
8749;-523;1
8749;-504;1
8749;-480;1
8749;-537;1
8749;-490;1
8749;-539;1
8749;-539;1
8749;-510;1
8749;-467;1
8749;-497;1
8749;-517;1
8749;-517;1
8749;-517;1
8749;-517;1
8749;-517;1
8749;-517;1
8749;-517;1
8749;-517;1
8749;-517;1
8749;-517;1
8749;-517;1
8749;-517;1
8749;-517;1
8749;-526;1
8749;-537;1
8749;-508;1
8749;-523;1
8749;-519;1
8749;-470;1
8749;-457;1
8749;-515;1
8749;-506;1
8749;-460;1
8749;-524;1
8749;-503;1
8749;-460;1
8749;-519;1
8749;-500;1
8749;-530;1
8749;-507;1
8804;-558;1
8804;-558;1
8804;-558;1
8804;-558;1
8804;-558;1
8804;-558;1
8804;-558;1
8804;-558;1
8804;-558;1
8804;-558;1
8804;-558;1
8804;-558;1
8804;-558;1
8804;-488;1
8804;-530;1
8804;-536;1
8804;-559;1
8804;-508;1
8804;-556;1
8804;-484;1
8804;-534;1
8804;-514;1
8804;-467;1
8804;-499;1
8804;-534;1
8804;-467;1
8804;-523;1
8804;-512;1
8804;-465;1
8804;-510;1
8804;-522;1
8804;-465;1
8804;-514;1
8804;-498;1
8804;-511;1
8804;-512;1
8804;-526;1
8804;-526;1
8804;-526;1
8804;-526;1
8804;-526;1
8804;-526;1
8804;-526;1
8804;-526;1
8804;-526;1
8804;-526;1
8804;-526;1
8804;-526;1
8804;-526;1
8804;-501;1
8804;-520;1
8804;-511;1
8804;-468;1
8804;-526;1
8804;-543;1
8804;-543;1
8804;-543;1
8804;-543;1
8804;-543;1
8804;-543;1
8804;-543;1
8804;-543;1
8804;-543;1
8804;-543;1
8804;-543;1
8804;-543;1
8804;-543;1
8804;-481;1
8804;-524;1
8804;-506;1
8804;-482;1
8804;-537;1
8858;-499;1
8858;-544;1
8858;-548;1
8858;-524;1
8858;-499;1
8858;-536;1
8858;-508;1
8858;-530;1
8858;-541;1
8858;-521;1
8858;-516;1
8858;-529;1
8858;-532;1
8858;-532;1
8858;-532;1
8858;-532;1
8858;-532;1
8858;-532;1
8858;-532;1
8858;-532;1
8858;-532;1
8858;-532;1
8858;-532;1
8858;-532;1
8858;-532;1
8858;-521;1
8858;-529;1
8858;-508;1
8858;-538;1
8858;-513;1
8858;-533;1
8858;-513;1
8858;-529;1
8858;-510;1
8858;-528;1
8858;-505;1
8858;-530;1
8858;-505;1
8858;-517;1
8858;-517;1
8858;-524;1
8858;-532;1
8858;-562;1
8858;-492;1
8858;-534;1
8858;-513;1
8858;-472;1
8858;-489;1
8858;-542;1
8858;-474;1
8858;-515;1
8858;-500;1
8858;-493;1
8858;-528;1
8909;-513;1
8909;-513;1
8909;-513;1
8909;-513;1
8909;-513;1
8909;-513;1
8909;-513;1
8909;-513;1
8909;-513;1
8909;-513;1
8909;-513;1
8909;-513;1
8909;-513;1
8909;-457;1
8909;-513;1
8909;-495;1
8909;-456;1
8909;-513;1
8909;-502;1
8909;-453;1
8909;-508;1
8909;-495;1
8909;-521;1
8909;-502;1
8909;-489;1
8909;-489;1
8909;-489;1
8909;-489;1
8909;-489;1
8909;-489;1
8909;-489;1
8909;-489;1
8909;-489;1
8909;-489;1
8909;-489;1
8909;-489;1
8909;-489;1
8909;-516;1
8909;-504;1
8909;-456;1
8909;-452;1
8909;-468;1
8909;-533;1
8909;-467;1
8909;-520;1
8909;-505;1
8909;-460;1
8909;-480;1
8909;-534;1
8909;-476;1
8909;-525;1
8909;-505;1
8909;-459;1
8909;-502;1
8909;-518;1
8909;-518;1
8909;-518;1
8909;-518;1
8909;-518;1
8909;-518;1
8909;-518;1
8909;-518;1
8909;-518;1
8909;-518;1
8909;-518;1
8909;-518;1
8909;-518;1
8909;-527;1
8909;-531;1
8909;-511;1
8909;-527;1
8909;-518;1
8964;-466;1
8964;-468;1
8964;-523;1
8964;-511;1
8964;-533;1
8964;-512;1
8964;-472;1
8964;-463;1
8964;-535;1
8964;-524;1
8964;-481;1
8964;-533;1
8964;-519;1
8964;-539;1
8964;-521;1
8964;-491;1
8964;-553;1
8964;-509;1
8964;-555;1
8964;-508;1
8964;-566;1
8964;-490;1
8964;-501;1
8964;-553;1
8964;-512;1
8964;-545;1
8964;-547;1
8964;-526;1
8964;-514;1
8964;-543;1
8964;-521;1
8964;-547;1
8964;-552;1
8964;-532;1
8964;-529;1
8964;-541;1
8964;-535;1
8964;-542;1
8964;-553;1
8964;-532;1
8964;-544;1
8964;-533;1
8964;-484;1
8964;-477;1
8964;-538;1
8964;-516;1
8964;-469;1
8964;-527;1
8964;-502;1
8964;-453;1
8964;-517;1
8964;-496;1
8964;-458;1
8964;-518;1
9016;-532;1
9016;-532;1
9016;-532;1
9016;-532;1
9016;-532;1
9016;-532;1
9016;-532;1
9016;-532;1
9016;-532;1
9016;-532;1
9016;-532;1
9016;-532;1
9016;-532;1
9016;-467;1
9016;-532;1
9016;-539;1
9016;-550;1
9016;-506;1
9016;-546;1
9016;-476;1
9016;-529;1
9016;-511;1
9016;-465;1
9016;-502;1
9016;-512;1
9016;-512;1
9016;-512;1
9016;-512;1
9016;-512;1
9016;-512;1
9016;-512;1
9016;-512;1
9016;-512;1
9016;-512;1
9016;-512;1
9016;-512;1
9016;-512;1
9016;-464;1
9016;-518;1
9016;-507;1
9016;-524;1
9016;-512;1
9016;-527;1
9016;-527;1
9016;-527;1
9016;-527;1
9016;-527;1
9016;-527;1
9016;-527;1
9016;-527;1
9016;-527;1
9016;-527;1
9016;-527;1
9016;-527;1
9016;-527;1
9016;-513;1
9016;-528;1
9016;-511;1
9016;-463;1
9016;-528;1
9016;-513;1
9016;-536;1
9016;-506;1
9016;-477;1
9016;-540;1
9016;-489;1
9066;-543;1
9066;-478;1
9066;-530;1
9066;-513;1
9066;-477;1
9066;-506;1
9066;-444;1
9066;-444;1
9066;-444;1
9066;-444;1
9066;-444;1
9066;-444;1
9066;-444;1
9066;-444;1
9066;-444;1
9066;-444;1
9066;-444;1
9066;-444;1
9066;-444;1
9066;-426;1
9066;-477;1
9066;-453;1
9066;-462;1
9066;-491;1
9066;-511;1
9066;-532;1
9066;-561;1
9066;-582;1
9066;-632;1
9066;-654;1
9066;-795;1
9066;-795;1
9066;-795;1
9066;-795;1
9066;-795;1
9066;-795;1
9066;-795;1
9066;-795;1
9066;-795;1
9066;-795;1
9066;-795;1
9066;-795;1
9066;-795;1
9066;-774;1
9066;-834;1
9066;-827;1
9066;-786;1
9066;-781;1
9066;-726;1
9066;-726;1
9066;-726;1
9066;-726;1
9066;-726;1
9066;-726;1
9066;-726;1
9066;-726;1
9066;-726;1
