28;-537;1
28;-543;1
28;-555;1
28;-538;1
28;-557;1
28;-541;1
28;-543;1
28;-552;1
28;-562;1
28;-539;1
28;-549;1
28;-530;1
28;-553;1
28;-540;1
28;-562;1
28;-533;1
28;-560;1
28;-538;1
28;-554;1
28;-533;1
28;-550;1
28;-529;1
28;-539;1
28;-554;1
28;-534;1
28;-545;1
28;-563;1
28;-545;1
28;-560;1
28;-546;1
28;-559;1
28;-546;1
28;-565;1
28;-557;1
28;-561;1
28;-555;1
28;-558;1
28;-557;1
28;-554;1
28;-551;1
28;-559;1
28;-572;1
28;-564;1
28;-570;1
28;-579;1
28;-562;1
28;-578;1
28;-588;1
83;-568;1
83;-563;1
83;-594;1
83;-583;1
83;-585;1
83;-608;1
83;-589;1
83;-586;1
83;-598;1
83;-576;1
83;-589;1
83;-603;1
83;-583;1
83;-586;1
83;-598;1
83;-582;1
83;-596;1
83;-582;1
83;-581;1
83;-595;1
83;-595;1
83;-580;1
83;-600;1
83;-575;1
83;-603;1
83;-583;1
83;-596;1
83;-578;1
83;-585;1
83;-597;1
83;-590;1
83;-588;1
83;-599;1
83;-578;1
83;-598;1
83;-589;1
83;-583;1
83;-583;1
83;-583;1
83;-583;1
83;-583;1
83;-583;1
83;-583;1
83;-583;1
83;-583;1
83;-583;1
83;-583;1
83;-583;1
83;-583;1
83;-567;1
83;-588;1
83;-550;1
83;-574;1
83;-547;1
83;-545;1
83;-546;1
83;-556;1
83;-523;1
83;-532;1
83;-542;1
134;-521;1
134;-518;1
134;-532;1
134;-501;1
134;-518;1
134;-488;1
134;-497;1
134;-495;1
134;-506;1
134;-490;1
134;-498;1
134;-507;1
134;-473;1
134;-495;1
134;-472;1
134;-480;1
134;-488;1
134;-481;1
134;-482;1
134;-478;1
134;-481;1
134;-460;1
134;-478;1
134;-466;1
134;-478;1
134;-458;1
134;-476;1
134;-454;1
134;-472;1
134;-466;1
134;-475;1
134;-460;1
134;-480;1
134;-461;1
134;-484;1
134;-459;1
134;-465;1
134;-468;1
134;-477;1
134;-460;1
134;-481;1
134;-458;1
134;-462;1
134;-471;1
134;-483;1
134;-457;1
134;-475;1
134;-458;1
188;-482;1
188;-463;1
188;-481;1
188;-463;1
188;-470;1
188;-482;1
188;-467;1
188;-486;1
188;-464;1
188;-482;1
188;-469;1
188;-476;1
188;-466;1
188;-465;1
188;-486;1
188;-471;1
188;-481;1
188;-468;1
188;-474;1
188;-490;1
188;-499;1
188;-468;1
188;-480;1
188;-489;1
188;-470;1
188;-481;1
188;-491;1
188;-471;1
188;-495;1
188;-471;1
188;-488;1
188;-475;1
188;-490;1
188;-475;1
188;-485;1
188;-488;1
188;-472;1
188;-478;1
188;-492;1
188;-480;1
188;-500;1
188;-477;1
188;-495;1
188;-473;1
188;-489;1
188;-473;1
188;-494;1
188;-472;1
188;-483;1
188;-480;1
188;-500;1
188;-491;1
188;-485;1
188;-486;1
241;-485;1
241;-470;1
241;-486;1
241;-471;1
241;-495;1
241;-488;1
241;-496;1
241;-480;1
241;-495;1
241;-473;1
241;-479;1
241;-494;1
241;-488;1
241;-502;1
241;-510;1
241;-483;1
241;-495;1
241;-511;1
241;-492;1
241;-486;1
241;-489;1
241;-473;1
241;-503;1
241;-487;1
241;-501;1
241;-501;1
241;-507;1
241;-487;1
241;-506;1
241;-483;1
241;-493;1
241;-490;1
241;-505;1
241;-485;1
241;-504;1
241;-476;1
241;-487;1
241;-489;1
241;-499;1
241;-481;1
241;-490;1
241;-486;1
241;-487;1
241;-489;1
241;-500;1
241;-482;1
241;-504;1
241;-482;1
241;-481;1
241;-483;1
241;-500;1
241;-478;1
241;-489;1
241;-504;1
293;-481;1
293;-496;1
293;-507;1
293;-490;1
293;-496;1
293;-510;1
293;-478;1
293;-496;1
293;-511;1
293;-495;1
293;-521;1
293;-493;1
293;-516;1
293;-485;1
293;-509;1
293;-487;1
293;-499;1
293;-508;1
293;-487;1
293;-497;1
293;-509;1
293;-487;1
293;-501;1
293;-519;1
293;-503;1
293;-498;1
293;-491;1
293;-503;1
293;-506;1
293;-520;1
293;-515;1
293;-502;1
293;-520;1
293;-499;1
293;-517;1
293;-504;1
293;-506;1
293;-495;1
293;-518;1
293;-488;1
293;-514;1
293;-496;1
293;-511;1
293;-497;1
293;-505;1
293;-487;1
293;-510;1
293;-497;1
349;-506;1
349;-509;1
349;-512;1
349;-497;1
349;-512;1
349;-523;1
349;-499;1
349;-510;1
349;-530;1
349;-506;1
349;-526;1
349;-508;1
349;-523;1
349;-503;1
349;-522;1
349;-504;1
349;-504;1
349;-509;1
349;-523;1
349;-497;1
349;-519;1
349;-506;1
349;-509;1
349;-512;1
349;-503;1
349;-503;1
349;-524;1
349;-501;1
349;-516;1
349;-504;1
349;-504;1
349;-509;1
349;-513;1
349;-494;1
349;-520;1
349;-497;1
349;-508;1
349;-490;1
349;-508;1
349;-497;1
349;-520;1
349;-496;1
349;-522;1
349;-513;1
349;-542;1
349;-518;1
349;-523;1
349;-542;1
401;-514;1
401;-529;1
401;-546;1
401;-524;1
401;-543;1
401;-528;1
401;-548;1
401;-512;1
401;-528;1
401;-512;1
401;-516;1
401;-537;1
401;-525;1
401;-519;1
401;-515;1
401;-522;1
401;-522;1
401;-536;1
401;-521;1
401;-520;1
401;-536;1
401;-511;1
401;-529;1
401;-515;1
401;-527;1
401;-513;1
401;-523;1
401;-499;1
401;-523;1
401;-507;1
401;-522;1
401;-509;1
401;-522;1
401;-492;1
401;-497;1
401;-511;1
401;-495;1
401;-510;1
401;-516;1
401;-501;1
401;-517;1
401;-499;1
401;-507;1
401;-505;1
401;-524;1
401;-494;1
401;-497;1
401;-517;1
401;-498;1
401;-518;1
401;-495;1
401;-504;1
401;-510;1
401;-493;1
401;-500;1
401;-491;1
401;-521;1
401;-505;1
401;-500;1
401;-507;1
461;-496;1
461;-490;1
461;-507;1
461;-487;1
461;-501;1
461;-515;1
461;-490;1
461;-496;1
461;-505;1
461;-494;1
461;-507;1
461;-512;1
461;-494;1
461;-510;1
461;-516;1
461;-494;1
461;-497;1
461;-508;1
461;-490;1
461;-488;1
461;-507;1
461;-493;1
461;-509;1
461;-490;1
461;-504;1
461;-503;1
461;-506;1
461;-485;1
461;-488;1
461;-489;1
461;-511;1
461;-488;1
461;-513;1
461;-499;1
461;-512;1
461;-525;1
461;-527;1
461;-532;1
461;-554;1
461;-541;1
461;-557;1
461;-580;1
461;-582;1
461;-590;1
461;-611;1
461;-593;1
461;-626;1
461;-621;1
461;-629;1
461;-652;1
461;-674;1
461;-625;1
461;-615;1
461;-583;1
512;-580;1
512;-559;1
512;-543;1
512;-476;1
512;-457;1
512;-434;1
512;-391;1
512;-378;1
512;-329;1
512;-245;1
512;-235;1
512;-210;1
512;-232;1
512;-249;1
512;-287;1
512;-288;1
512;-334;1
512;-267;1
512;-208;1
512;-288;1
512;-334;1
512;-332;1
512;-370;1
512;-399;1
512;-406;1
512;-423;1
512;-460;1
512;-460;1
512;-479;1
512;-606;1
512;-511;1
512;-507;1
512;-528;1
512;-438;1
512;-547;1
512;-527;1
512;-513;1
512;-515;1
512;-520;1
512;-495;1
512;-501;1
512;-514;1
512;-496;1
512;-505;1
512;-522;1
512;-568;1
512;-520;1
512;-523;1
564;-496;1
564;-426;1
564;-518;1
564;-496;1
564;-518;1
564;-497;1
564;-521;1
564;-495;1
564;-513;1
564;-497;1
564;-510;1
564;-490;1
564;-503;1
564;-569;1
564;-524;1
564;-489;1
564;-498;1
564;-437;1
564;-512;1
564;-497;1
564;-509;1
564;-483;1
564;-507;1
564;-489;1
564;-502;1
564;-500;1
564;-503;1
564;-486;1
564;-501;1
564;-552;1
564;-511;1
564;-486;1
564;-505;1
564;-422;1
564;-526;1
564;-511;1
564;-537;1
564;-515;1
564;-536;1
564;-526;1
564;-545;1
564;-515;1
564;-522;1
564;-529;1
564;-540;1
564;-589;1
564;-548;1
564;-516;1
564;-522;1
564;-444;1
564;-541;1
564;-514;1
564;-534;1
564;-647;1
620;-654;1
620;-610;1
620;-619;1
620;-593;1
620;-610;1
620;-584;1
620;-573;1
620;-567;1
620;-590;1
620;-569;1
620;-568;1
620;-581;1
620;-566;1
620;-560;1
620;-576;1
620;-549;1
620;-566;1
620;-549;1
620;-555;1
620;-564;1
620;-571;1
620;-549;1
620;-567;1
620;-542;1
620;-563;1
620;-539;1
620;-559;1
620;-539;1
620;-561;1
620;-541;1
620;-561;1
620;-560;1
620;-568;1
620;-547;1
620;-572;1
620;-553;1
620;-575;1
620;-559;1
620;-581;1
620;-554;1
620;-576;1
620;-555;1
620;-562;1
620;-567;1
620;-579;1
620;-558;1
620;-568;1
620;-572;1
620;-571;1
620;-571;1
620;-589;1
620;-574;1
620;-570;1
620;-574;1
670;-569;1
670;-577;1
670;-586;1
670;-568;1
670;-587;1
670;-596;1
670;-584;1
670;-586;1
670;-600;1
670;-582;1
670;-583;1
670;-594;1
670;-566;1
670;-571;1
670;-585;1
670;-573;1
670;-579;1
670;-582;1
670;-572;1
670;-579;1
670;-589;1
670;-564;1
670;-574;1
670;-582;1
670;-555;1
670;-571;1
670;-588;1
670;-570;1
670;-559;1
670;-556;1
670;-588;1
670;-575;1
670;-574;1
670;-566;1
670;-573;1
670;-586;1
670;-589;1
670;-575;1
670;-595;1
670;-560;1
670;-567;1
670;-587;1
670;-574;1
670;-582;1
670;-584;1
670;-564;1
670;-578;1
670;-592;1
726;-576;1
726;-586;1
726;-592;1
726;-573;1
726;-594;1
726;-579;1
726;-595;1
726;-595;1
726;-600;1
726;-578;1
726;-599;1
726;-576;1
726;-574;1
726;-572;1
726;-589;1
726;-572;1
726;-584;1
726;-593;1
726;-575;1
726;-572;1
726;-589;1
726;-552;1
726;-559;1
726;-580;1
726;-564;1
726;-587;1
726;-579;1
726;-581;1
726;-570;1
726;-574;1
726;-580;1
726;-581;1
726;-568;1
726;-555;1
726;-576;1
726;-559;1
726;-573;1
726;-573;1
726;-569;1
726;-546;1
726;-555;1
726;-522;1
726;-527;1
726;-548;1
726;-551;1
726;-533;1
726;-544;1
726;-521;1
726;-532;1
726;-509;1
726;-521;1
726;-505;1
726;-495;1
726;-506;1
776;-470;1
776;-482;1
776;-501;1
776;-466;1
776;-479;1
776;-450;1
776;-466;1
776;-435;1
776;-455;1
776;-428;1
776;-443;1
776;-451;1
776;-410;1
776;-425;1
776;-407;1
776;-416;1
776;-425;1
776;-417;1
776;-409;1
776;-407;1
776;-406;1
776;-391;1
776;-415;1
776;-407;1
776;-395;1
776;-392;1
776;-393;1
776;-379;1
776;-404;1
776;-405;1
776;-390;1
776;-396;1
776;-414;1
776;-397;1
776;-405;1
776;-381;1
776;-393;1
776;-400;1
776;-428;1
776;-393;1
776;-409;1
776;-398;1
776;-398;1
776;-387;1
776;-397;1
776;-380;1
776;-388;1
776;-410;1
776;-384;1
776;-394;1
776;-415;1
776;-386;1
776;-407;1
776;-390;1
828;-396;1
828;-399;1
828;-406;1
828;-390;1
828;-394;1
828;-403;1
828;-395;1
828;-387;1
828;-406;1
828;-396;1
828;-395;1
828;-398;1
828;-379;1
828;-383;1
828;-405;1
828;-389;1
828;-395;1
828;-409;1
828;-380;1
828;-389;1
828;-404;1
828;-377;1
828;-401;1
828;-384;1
828;-393;1
828;-402;1
828;-405;1
828;-385;1
828;-375;1
828;-393;1
828;-373;1
828;-371;1
828;-376;1
828;-352;1
828;-366;1
828;-381;1
828;-352;1
828;-369;1
828;-389;1
828;-359;1
828;-373;1
828;-356;1
828;-379;1
828;-356;1
828;-381;1
828;-364;1
828;-367;1
828;-370;1
883;-365;1
883;-358;1
883;-368;1
883;-348;1
883;-362;1
883;-363;1
883;-380;1
883;-371;1
883;-380;1
883;-361;1
883;-381;1
883;-378;1
883;-394;1
883;-378;1
883;-393;1
883;-379;1
883;-387;1
883;-400;1
883;-390;1
883;-402;1
883;-409;1
883;-386;1
883;-396;1
883;-410;1
883;-387;1
883;-398;1
883;-413;1
883;-394;1
883;-416;1
883;-390;1
883;-408;1
883;-391;1
883;-411;1
883;-391;1
883;-411;1
883;-401;1
883;-414;1
883;-400;1
883;-422;1
883;-419;1
883;-414;1
883;-399;1
883;-407;1
883;-408;1
883;-420;1
883;-408;1
883;-424;1
883;-416;1
883;-429;1
883;-427;1
883;-430;1
883;-405;1
883;-425;1
883;-412;1
938;-427;1
938;-403;1
938;-415;1
938;-401;1
938;-417;1
938;-395;1
938;-402;1
938;-399;1
938;-414;1
938;-398;1
938;-411;1
938;-425;1
938;-404;1
938;-418;1
938;-423;1
938;-404;1
938;-421;1
938;-427;1
938;-406;1
938;-422;1
938;-438;1
938;-415;1
938;-430;1
938;-412;1
938;-431;1
938;-402;1
938;-427;1
938;-392;1
938;-405;1
938;-402;1
938;-418;1
938;-422;1
938;-418;1
938;-393;1
938;-397;1
938;-406;1
938;-422;1
938;-415;1
938;-432;1
938;-408;1
938;-424;1
938;-410;1
938;-407;1
938;-411;1
938;-432;1
938;-399;1
938;-410;1
938;-419;1
938;-404;1
938;-415;1
938;-426;1
938;-410;1
938;-424;1
938;-402;1
991;-411;1
991;-414;1
991;-437;1
991;-414;1
991;-434;1
991;-448;1
991;-430;1
991;-437;1
991;-446;1
991;-420;1
991;-429;1
991;-431;1
991;-431;1
991;-412;1
991;-431;1
991;-424;1
991;-433;1
991;-449;1
991;-439;1
991;-437;1
991;-449;1
991;-439;1
991;-450;1
991;-450;1
991;-448;1
991;-435;1
991;-452;1
991;-431;1
991;-463;1
991;-455;1
991;-471;1
991;-458;1
991;-474;1
991;-456;1
991;-461;1
991;-490;1
991;-477;1
991;-493;1
991;-504;1
991;-486;1
991;-499;1
991;-511;1
991;-489;1
991;-497;1
991;-505;1
991;-489;1
991;-499;1
991;-479;1
991;-480;1
991;-487;1
991;-492;1
991;-464;1
991;-478;1
991;-453;1
1043;-458;1
1043;-467;1
1043;-490;1
1043;-474;1
1043;-466;1
1043;-456;1
1043;-455;1
1043;-454;1
1043;-471;1
1043;-438;1
1043;-452;1
1043;-438;1
1043;-440;1
1043;-429;1
1043;-444;1
1043;-418;1
1043;-426;1
1043;-417;1
1043;-427;1
1043;-408;1
1043;-423;1
1043;-414;1
1043;-441;1
1043;-411;1
1043;-425;1
1043;-430;1
1043;-447;1
1043;-412;1
1043;-433;1
1043;-416;1
1043;-432;1
1043;-417;1
1043;-431;1
1043;-407;1
1043;-430;1
1043;-411;1
1043;-428;1
1043;-417;1
1043;-418;1
1043;-409;1
1043;-422;1
1043;-432;1
1043;-422;1
1043;-425;1
1043;-401;1
1043;-414;1
1043;-436;1
1043;-429;1
1095;-424;1
1095;-423;1
1095;-428;1
1095;-417;1
1095;-431;1
1095;-437;1
1095;-417;1
1095;-418;1
1095;-432;1
1095;-409;1
1095;-415;1
1095;-403;1
1095;-414;1
1095;-421;1
1095;-438;1
1095;-421;1
1095;-435;1
1095;-441;1
1095;-417;1
1095;-420;1
1095;-428;1
1095;-401;1
1095;-417;1
1095;-399;1
1095;-417;1
1095;-405;1
1095;-429;1
1095;-412;1
1095;-424;1
1095;-453;1
1095;-436;1
1095;-457;1
1095;-480;1
1095;-464;1
1095;-496;1
1095;-475;1
1095;-509;1
1095;-526;1
1095;-546;1
1095;-561;1
1095;-587;1
1095;-599;1
1095;-601;1
1095;-626;1
1095;-657;1
1095;-651;1
1095;-694;1
1095;-689;1
1095;-689;1
1095;-648;1
1095;-624;1
1095;-608;1
1095;-603;1
1095;-571;1
1155;-491;1
1155;-453;1
1155;-437;1
1155;-399;1
1155;-383;1
1155;-365;1
1155;-282;1
1155;-238;1
1155;-232;1
1155;-218;1
1155;-261;1
1155;-282;1
1155;-334;1
1155;-336;1
1155;-382;1
1155;-384;1
1155;-416;1
1155;-403;1
1155;-428;1
1155;-452;1
1155;-485;1
1155;-478;1
1155;-493;1
1155;-517;1
1155;-499;1
1155;-519;1
1155;-520;1
1155;-524;1
1155;-532;1
1155;-544;1
1155;-522;1
1155;-509;1
1155;-521;1
1155;-502;1
1155;-530;1
1155;-512;1
1155;-515;1
1155;-515;1
1155;-523;1
1155;-506;1
1155;-527;1
1155;-518;1
1155;-518;1
1155;-529;1
1155;-537;1
1155;-517;1
1155;-544;1
1155;-521;1
1155;-515;1
1155;-527;1
1155;-528;1
1155;-513;1
1155;-527;1
1155;-508;1
1207;-517;1
1207;-519;1
1207;-518;1
1207;-507;1
1207;-509;1
1207;-512;1
1207;-504;1
1207;-524;1
1207;-494;1
1207;-508;1
1207;-524;1
1207;-515;1
1207;-527;1
1207;-507;1
1207;-525;1
1207;-501;1
1207;-507;1
1207;-520;1
1207;-507;1
1207;-506;1
1207;-521;1
1207;-490;1
1207;-496;1
1207;-473;1
1207;-476;1
1207;-467;1
1207;-489;1
1207;-471;1
1207;-491;1
1207;-467;1
1207;-484;1
1207;-471;1
1207;-494;1
1207;-473;1
1207;-485;1
1207;-502;1
1207;-468;1
1207;-477;1
1207;-499;1
1207;-495;1
1207;-499;1
1207;-473;1
1207;-485;1
1207;-498;1
1207;-510;1
1207;-480;1
1207;-497;1
1207;-499;1
1207;-513;1
1207;-497;1
1207;-527;1
1207;-505;1
1207;-525;1
1207;-517;1
1259;-514;1
1259;-507;1
1259;-508;1
1259;-525;1
1259;-533;1
1259;-536;1
1259;-527;1
1259;-517;1
1259;-529;1
1259;-513;1
1259;-527;1
1259;-524;1
1259;-537;1
1259;-529;1
1259;-540;1
1259;-521;1
1259;-540;1
1259;-522;1
1259;-525;1
1259;-527;1
1259;-532;1
1259;-515;1
1259;-536;1
1259;-513;1
1259;-529;1
1259;-536;1
1259;-532;1
1259;-514;1
1259;-539;1
1259;-521;1
1259;-545;1
1259;-531;1
1259;-550;1
1259;-527;1
1259;-543;1
1259;-559;1
1259;-550;1
1259;-563;1
1259;-544;1
1259;-557;1
1259;-557;1
1259;-545;1
1259;-550;1
1259;-552;1
1259;-555;1
1259;-554;1
1259;-555;1
1259;-575;1
1311;-574;1
1311;-571;1
1311;-587;1
1311;-558;1
1311;-581;1
1311;-580;1
1311;-592;1
1311;-577;1
1311;-597;1
1311;-574;1
1311;-595;1
1311;-570;1
1311;-583;1
1311;-589;1
1311;-602;1
1311;-578;1
1311;-589;1
1311;-592;1
1311;-578;1
1311;-584;1
1311;-598;1
1311;-573;1
1311;-597;1
1311;-574;1
1311;-597;1
1311;-569;1
1311;-586;1
1311;-568;1
1311;-581;1
1311;-558;1
1311;-578;1
1311;-559;1
1311;-573;1
1311;-552;1
1311;-573;1
1311;-551;1
1311;-560;1
1311;-555;1
1311;-564;1
1311;-549;1
1311;-546;1
1311;-553;1
1311;-540;1
1311;-535;1
1311;-561;1
1311;-533;1
1311;-545;1
1311;-550;1
1360;-532;1
1360;-530;1
1360;-535;1
1360;-505;1
1360;-524;1
1360;-507;1
1360;-524;1
1360;-507;1
1360;-519;1
1360;-495;1
1360;-505;1
1360;-488;1
1360;-500;1
1360;-491;1
1360;-504;1
1360;-494;1
1360;-512;1
1360;-487;1
1360;-510;1
1360;-485;1
1360;-498;1
1360;-478;1
1360;-489;1
1360;-480;1
1360;-497;1
1360;-480;1
1360;-495;1
1360;-486;1
1360;-487;1
1360;-470;1
1360;-454;1
1360;-455;1
1360;-449;1
1360;-438;1
1360;-439;1
1360;-455;1
1360;-445;1
1360;-436;1
1360;-453;1
1360;-419;1
1360;-425;1
1360;-425;1
1360;-410;1
1360;-420;1
1360;-427;1
1360;-397;1
1360;-388;1
1360;-405;1
1360;-389;1
1360;-399;1
1360;-414;1
1360;-389;1
1360;-399;1
1360;-413;1
1411;-384;1
1411;-399;1
1411;-401;1
1411;-371;1
1411;-380;1
1411;-391;1
1411;-349;1
1411;-356;1
1411;-359;1
1411;-338;1
1411;-346;1
1411;-323;1
1411;-342;1
1411;-315;1
1411;-332;1
1411;-311;1
1411;-326;1
1411;-311;1
1411;-319;1
1411;-308;1
1411;-331;1
1411;-318;1
1411;-313;1
1411;-314;1
1411;-309;1
1411;-298;1
1411;-318;1
1411;-291;1
1411;-307;1
1411;-294;1
1411;-295;1
1411;-298;1
1411;-308;1
1411;-293;1
1411;-318;1
1411;-298;1
1411;-313;1
1411;-298;1
1411;-317;1
1411;-303;1
1411;-322;1
1411;-299;1
1411;-305;1
1411;-307;1
1411;-314;1
1411;-306;1
1411;-309;1
1411;-317;1
1462;-294;1
1462;-309;1
1462;-328;1
1462;-308;1
1462;-296;1
1462;-315;1
1462;-291;1
1462;-314;1
1462;-300;1
1462;-318;1
1462;-321;1
1462;-322;1
1462;-321;1
1462;-321;1
1462;-315;1
1462;-317;1
1462;-335;1
1462;-330;1
1462;-332;1
1462;-327;1
1462;-343;1
1462;-326;1
1462;-340;1
1462;-366;1
1462;-336;1
1462;-338;1
1462;-353;1
1462;-335;1
1462;-356;1
1462;-336;1
1462;-348;1
1462;-335;1
1462;-353;1
1462;-333;1
1462;-344;1
1462;-354;1
1462;-335;1
1462;-333;1
1462;-349;1
1462;-328;1
1462;-343;1
1462;-368;1
1462;-347;1
1462;-353;1
1462;-366;1
1462;-344;1
1462;-359;1
1462;-361;1
1513;-377;1
1513;-351;1
1513;-372;1
1513;-351;1
1513;-362;1
1513;-363;1
1513;-367;1
1513;-365;1
1513;-362;1
1513;-341;1
1513;-353;1
1513;-369;1
1513;-356;1
1513;-360;1
1513;-378;1
1513;-350;1
1513;-358;1
1513;-371;1
1513;-354;1
1513;-361;1
1513;-369;1
1513;-349;1
1513;-356;1
1513;-371;1
1513;-356;1
1513;-368;1
1513;-392;1
1513;-373;1
1513;-399;1
1513;-368;1
1513;-370;1
1513;-375;1
1513;-393;1
1513;-369;1
1513;-388;1
1513;-371;1
1513;-387;1
1513;-367;1
1513;-389;1
1513;-372;1
1513;-391;1
1513;-378;1
1513;-398;1
1513;-384;1
1513;-413;1
1513;-399;1
1513;-412;1
1513;-406;1
1513;-404;1
1513;-400;1
1513;-396;1
1513;-395;1
1513;-409;1
1513;-400;1
1569;-398;1
1569;-391;1
1569;-407;1
1569;-388;1
1569;-404;1
1569;-383;1
1569;-396;1
1569;-386;1
1569;-407;1
1569;-385;1
1569;-393;1
1569;-408;1
1569;-387;1
1569;-389;1
1569;-407;1
1569;-384;1
1569;-395;1
1569;-406;1
1569;-392;1
1569;-403;1
1569;-414;1
1569;-392;1
1569;-400;1
1569;-408;1
1569;-387;1
1569;-398;1
1569;-419;1
1569;-394;1
1569;-399;1
1569;-408;1
1569;-425;1
1569;-407;1
1569;-422;1
1569;-412;1
1569;-419;1
1569;-420;1
1569;-420;1
1569;-416;1
1569;-437;1
1569;-433;1
1569;-419;1
1569;-433;1
1569;-417;1
1569;-418;1
1569;-428;1
1569;-403;1
1569;-416;1
1569;-437;1
1569;-423;1
1569;-434;1
1569;-452;1
1569;-431;1
1569;-440;1
1569;-451;1
1620;-445;1
1620;-457;1
1620;-472;1
1620;-462;1
1620;-475;1
1620;-486;1
1620;-468;1
1620;-481;1
1620;-502;1
1620;-476;1
1620;-486;1
1620;-498;1
1620;-476;1
1620;-485;1
1620;-499;1
1620;-486;1
1620;-496;1
1620;-488;1
1620;-489;1
1620;-475;1
1620;-496;1
1620;-472;1
1620;-478;1
1620;-497;1
1620;-485;1
1620;-479;1
1620;-494;1
1620;-482;1
1620;-473;1
1620;-479;1
1620;-471;1
1620;-473;1
1620;-481;1
1620;-457;1
1620;-466;1
1620;-456;1
1620;-458;1
1620;-460;1
1620;-468;1
1620;-449;1
1620;-458;1
1620;-475;1
1620;-453;1
1620;-459;1
1620;-472;1
1620;-454;1
1620;-457;1
1620;-471;1
1671;-459;1
1671;-469;1
1671;-482;1
1671;-465;1
1671;-481;1
1671;-458;1
1671;-472;1
1671;-450;1
1671;-476;1
1671;-448;1
1671;-464;1
1671;-474;1
1671;-460;1
1671;-486;1
1671;-468;1
1671;-489;1
1671;-482;1
1671;-482;1
1671;-486;1
1671;-480;1
1671;-489;1
1671;-479;1
1671;-468;1
1671;-477;1
1671;-467;1
1671;-461;1
1671;-481;1
1671;-459;1
1671;-465;1
1671;-468;1
1671;-454;1
1671;-461;1
1671;-477;1
1671;-466;1
1671;-467;1
1671;-481;1
1671;-461;1
1671;-479;1
1671;-491;1
1671;-474;1
1671;-499;1
1671;-475;1
1671;-500;1
1671;-472;1
1671;-489;1
1671;-461;1
1671;-472;1
1671;-472;1
1671;-445;1
1671;-447;1
1671;-457;1
1671;-429;1
1671;-453;1
1671;-442;1
1724;-455;1
1724;-465;1
1724;-489;1
1724;-473;1
1724;-503;1
1724;-500;1
1724;-503;1
1724;-515;1
1724;-534;1
1724;-544;1
1724;-574;1
1724;-576;1
1724;-611;1
1724;-614;1
1724;-626;1
1724;-630;1
1724;-664;1
1724;-660;1
1724;-686;1
1724;-714;1
1724;-706;1
1724;-648;1
1724;-637;1
1724;-602;1
1724;-593;1
1724;-539;1
1724;-511;1
1724;-459;1
1724;-443;1
1724;-437;1
1724;-382;1
1724;-335;1
1724;-294;1
1724;-221;1
1724;-221;1
1724;-217;1
1724;-241;1
1724;-270;1
1724;-313;1
1724;-336;1
1724;-377;1
1724;-402;1
1724;-393;1
1724;-430;1
1724;-442;1
1724;-441;1
1724;-461;1
1724;-486;1
1777;-500;1
1777;-522;1
1777;-554;1
1777;-539;1
1777;-561;1
1777;-555;1
1777;-553;1
1777;-566;1
1777;-578;1
1777;-564;1
1777;-572;1
1777;-540;1
1777;-554;1
1777;-534;1
1777;-548;1
1777;-536;1
1777;-540;1
1777;-559;1
1777;-535;1
1777;-542;1
1777;-557;1
1777;-534;1
1777;-552;1
1777;-525;1
1777;-531;1
1777;-528;1
1777;-542;1
1777;-517;1
1777;-528;1
1777;-553;1
1777;-531;1
1777;-526;1
1777;-540;1
1777;-517;1
1777;-533;1
1777;-517;1
1777;-542;1
1777;-521;1
1777;-546;1
1777;-522;1
1777;-546;1
1777;-541;1
1777;-542;1
1777;-537;1
1777;-530;1
1777;-512;1
1777;-525;1
1777;-543;1
1843;-539;1
1843;-545;1
1843;-549;1
1843;-529;1
1843;-555;1
1843;-530;1
1843;-528;1
1843;-535;1
1843;-551;1
1843;-529;1
1843;-554;1
1843;-530;1
1843;-536;1
1843;-540;1
1843;-558;1
1843;-533;1
1843;-537;1
1843;-534;1
1843;-537;1
1843;-546;1
1843;-560;1
1843;-529;1
1843;-550;1
1843;-531;1
1843;-539;1
1843;-545;1
1843;-561;1
1843;-538;1
1843;-553;1
1843;-554;1
1843;-564;1
1843;-552;1
1843;-564;1
1843;-540;1
1843;-535;1
1843;-526;1
1843;-524;1
1843;-508;1
1843;-524;1
1843;-505;1
1843;-527;1
1843;-518;1
1843;-530;1
1843;-522;1
1843;-539;1
1843;-527;1
1843;-548;1
1843;-528;1
1843;-545;1
1843;-526;1
1843;-538;1
1843;-524;1
1843;-534;1
1843;-510;1
1843;-528;1
1843;-505;1
1843;-516;1
1843;-485;1
1843;-510;1
1843;-507;1
1843;-539;1
1843;-522;1
1843;-552;1
1843;-539;1
1843;-568;1
1843;-556;1
1899;-563;1
1899;-576;1
1899;-582;1
1899;-550;1
1899;-566;1
1899;-546;1
1899;-564;1
1899;-550;1
1899;-570;1
1899;-555;1
1899;-547;1
1899;-547;1
1899;-539;1
1899;-535;1
1899;-559;1
1899;-536;1
1899;-552;1
1899;-538;1
1899;-536;1
1899;-543;1
1899;-552;1
1899;-525;1
1899;-549;1
1899;-534;1
1899;-553;1
1899;-535;1
1899;-549;1
1899;-533;1
1899;-555;1
1899;-523;1
1899;-528;1
1899;-528;1
1899;-546;1
1899;-531;1
1899;-545;1
1899;-532;1
1899;-533;1
1899;-542;1
1899;-556;1
1899;-536;1
1899;-542;1
1899;-548;1
1899;-526;1
1899;-543;1
1899;-562;1
1899;-537;1
1899;-547;1
1899;-557;1
1899;-540;1
1899;-528;1
1899;-545;1
1899;-524;1
1899;-519;1
1899;-526;1
1950;-509;1
1950;-501;1
1950;-522;1
1950;-506;1
1950;-525;1
1950;-515;1
1950;-526;1
1950;-526;1
1950;-543;1
1950;-524;1
1950;-542;1
1950;-523;1
1950;-544;1
1950;-523;1
1950;-522;1
1950;-505;1
1950;-526;1
1950;-511;1
1950;-539;1
1950;-508;1
1950;-531;1
1950;-514;1
1950;-519;1
1950;-525;1
1950;-510;1
1950;-524;1
1950;-538;1
1950;-525;1
1950;-541;1
1950;-523;1
1950;-540;1
1950;-544;1
1950;-561;1
1950;-533;1
1950;-541;1
1950;-529;1
1950;-528;1
1950;-525;1
1950;-530;1
1950;-515;1
1950;-517;1
1950;-522;1
1950;-517;1
1950;-513;1
1950;-524;1
1950;-506;1
1950;-522;1
1950;-498;1
2003;-507;1
2003;-511;1
2003;-521;1
2003;-496;1
2003;-504;1
2003;-473;1
2003;-483;1
2003;-453;1
2003;-470;1
2003;-453;1
2003;-453;1
2003;-450;1
2003;-423;1
2003;-433;1
2003;-433;1
2003;-405;1
2003;-400;1
2003;-420;1
2003;-401;1
2003;-397;1
2003;-417;1
2003;-397;1
2003;-413;1
2003;-387;1
2003;-405;1
2003;-371;1
2003;-395;1
2003;-370;1
2003;-380;1
2003;-389;1
2003;-363;1
2003;-373;1
2003;-360;1
2003;-356;1
2003;-351;1
2003;-348;1
2003;-339;1
2003;-335;1
2003;-348;1
2003;-325;1
2003;-339;1
2003;-322;1
2003;-314;1
2003;-315;1
2003;-333;1
2003;-304;1
2003;-322;1
2003;-299;1
2003;-303;1
2003;-300;1
2003;-313;1
2003;-294;1
2003;-297;1
2003;-308;1
2053;-285;1
2053;-294;1
2053;-316;1
2053;-295;1
2053;-315;1
2053;-289;1
2053;-312;1
2053;-297;1
2053;-316;1
2053;-298;1
2053;-307;1
2053;-313;1
2053;-291;1
2053;-312;1
2053;-294;1
2053;-298;1
2053;-305;1
2053;-288;1
2053;-302;1
2053;-293;1
2053;-305;1
2053;-290;1
2053;-299;1
2053;-318;1
2053;-303;1
2053;-299;1
2053;-316;1
2053;-286;1
2053;-298;1
2053;-319;1
2053;-298;1
2053;-292;1
2053;-313;1
2053;-295;1
2053;-307;1
2053;-321;1
2053;-305;1
2053;-309;1
2053;-333;1
2053;-310;1
2053;-330;1
2053;-309;1
2053;-310;1
2053;-313;1
2053;-319;1
2053;-296;1
2053;-303;1
2053;-314;1
2053;-285;1
2053;-298;1
2053;-302;1
2053;-286;1
2053;-303;1
2053;-313;1
2109;-294;1
2109;-302;1
2109;-312;1
2109;-287;1
2109;-294;1
2109;-303;1
2109;-301;1
2109;-303;1
2109;-324;1
2109;-312;1
2109;-307;1
2109;-312;1
2109;-310;1
2109;-313;1
2109;-332;1
2109;-301;1
2109;-311;1
2109;-299;1
2109;-315;1
2109;-296;1
2109;-306;1
2109;-282;1
2109;-291;1
2109;-309;1
2109;-288;1
2109;-298;1
2109;-315;1
2109;-294;1
2109;-305;1
2109;-321;1
2109;-301;1
2109;-305;1
2109;-316;1
2109;-298;1
2109;-305;1
2109;-298;1
2109;-318;1
2109;-321;1
2109;-330;1
2109;-308;1
2109;-334;1
2109;-310;1
2109;-332;1
2109;-309;1
2109;-329;1
2109;-314;1
2109;-334;1
2109;-323;1
2160;-332;1
2160;-324;1
2160;-324;1
2160;-321;1
2160;-331;1
2160;-319;1
2160;-320;1
2160;-314;1
2160;-334;1
2160;-315;1
2160;-331;1
2160;-315;1
2160;-321;1
2160;-326;1
2160;-339;1
2160;-312;1
2160;-335;1
2160;-324;1
2160;-342;1
2160;-324;1
2160;-349;1
2160;-325;1
2160;-340;1
2160;-349;1
2160;-327;1
2160;-337;1
2160;-351;1
2160;-335;1
2160;-359;1
2160;-346;1
2160;-361;1
2160;-349;1
2160;-370;1
2160;-343;1
2160;-370;1
2160;-363;1
2160;-376;1
2160;-359;1
2160;-381;1
2160;-369;1
2160;-392;1
2160;-377;1
2160;-387;1
2160;-385;1
2160;-401;1
2160;-375;1
2160;-397;1
2160;-389;1
2160;-397;1
2160;-389;1
2160;-399;1
2160;-395;1
2160;-409;1
2160;-383;1
2210;-402;1
2210;-392;1
2210;-412;1
2210;-389;1
2210;-401;1
2210;-421;1
2210;-417;1
2210;-423;1
2210;-428;1
2210;-418;1
2210;-433;1
2210;-409;1
2210;-431;1
2210;-416;1
2210;-443;1
2210;-423;1
2210;-438;1
2210;-405;1
2210;-422;1
2210;-431;1
2210;-435;1
2210;-414;1
2210;-435;1
2210;-415;1
2210;-457;1
2210;-436;1
2210;-459;1
2210;-456;1
2210;-466;1
2210;-463;1
2210;-473;1
2210;-479;1
2210;-479;1
2210;-488;1
2210;-502;1
2210;-509;1
2210;-504;1
2210;-505;1
2210;-526;1
2210;-500;1
2210;-519;1
2210;-509;1
2210;-516;1
2210;-516;1
2210;-534;1
2210;-509;1
2210;-508;1
2210;-524;1
2262;-504;1
2262;-515;1
2262;-527;1
2262;-510;1
2262;-533;1
2262;-520;1
2262;-531;1
2262;-512;1
2262;-533;1
2262;-505;1
2262;-524;1
2262;-503;1
2262;-525;1
2262;-504;1
2262;-522;1
2262;-504;1
2262;-516;1
2262;-498;1
2262;-517;1
2262;-502;1
2262;-516;1
2262;-510;1
2262;-521;1
2262;-504;1
2262;-520;1
2262;-523;1
2262;-530;1
2262;-522;1
2262;-517;1
2262;-526;1
2262;-525;1
2262;-524;1
2262;-540;1
2262;-526;1
2262;-540;1
2262;-556;1
2262;-531;1
2262;-533;1
2262;-552;1
2262;-531;1
2262;-542;1
2262;-522;1
2262;-555;1
2262;-537;1
2262;-557;1
2262;-539;1
2262;-558;1
2262;-544;1
2318;-552;1
2318;-554;1
2318;-565;1
2318;-550;1
2318;-573;1
2318;-563;1
2318;-569;1
2318;-568;1
2318;-573;1
2318;-547;1
2318;-565;1
2318;-533;1
2318;-551;1
2318;-557;1
2318;-569;1
2318;-572;1
2318;-589;1
2318;-583;1
2318;-592;1
2318;-585;1
2318;-597;1
2318;-583;1
2318;-592;1
2318;-604;1
2318;-597;1
2318;-588;1
2318;-606;1
2318;-591;1
2318;-595;1
2318;-600;1
2318;-594;1
2318;-602;1
2318;-617;1
2318;-602;1
2318;-628;1
2318;-661;1
2318;-645;1
2318;-659;1
2318;-685;1
2318;-673;1
2318;-709;1
2318;-697;1
2318;-713;1
2318;-712;1
2318;-741;1
2318;-749;1
2318;-778;1
2318;-760;1
2318;-775;1
2318;-778;1
2318;-788;1
2318;-765;1
2318;-754;1
2318;-744;1
2318;-706;1
2318;-727;1
2318;-687;1
2318;-648;1
2318;-599;1
2318;-561;1
2370;-530;1
2370;-496;1
2370;-481;1
2370;-434;1
2370;-389;1
2370;-344;1
2370;-357;1
2370;-362;1
2370;-399;1
2370;-405;1
2370;-440;1
2370;-448;1
2370;-500;1
2370;-515;1
2370;-564;1
2370;-557;1
2370;-586;1
2370;-617;1
2370;-609;1
2370;-623;1
2370;-641;1
2370;-640;1
2370;-675;1
2370;-673;1
2370;-699;1
2370;-725;1
2370;-746;1
2370;-730;1
2370;-743;1
2370;-732;1
2370;-753;1
2370;-761;1
2370;-774;1
2370;-762;1
2370;-781;1
2370;-753;1
2370;-771;1
2370;-758;1
2370;-781;1
2370;-769;1
2370;-778;1
2370;-781;1
2370;-771;1
2370;-772;1
2370;-773;1
2370;-767;1
2370;-779;1
2370;-746;1
2426;-752;1
2426;-751;1
2426;-768;1
2426;-745;1
2426;-757;1
2426;-777;1
2426;-748;1
2426;-757;1
2426;-770;1
2426;-747;1
2426;-748;1
2426;-772;1
2426;-753;1
2426;-747;1
2426;-774;1
2426;-743;1
2426;-760;1
2426;-726;1
2426;-730;1
2426;-716;1
2426;-727;1
2426;-714;1
2426;-730;1
2426;-715;1
2426;-725;1
2426;-728;1
2426;-732;1
2426;-712;1
2426;-724;1
2426;-728;1
2426;-743;1
2426;-723;1
2426;-741;1
2426;-716;1
2426;-732;1
2426;-752;1
2426;-737;1
2426;-728;1
2426;-736;1
2426;-710;1
2426;-727;1
2426;-723;1
2426;-737;1
2426;-720;1
2426;-749;1
2426;-722;1
2426;-742;1
2426;-731;1
2426;-748;1
2426;-723;1
2426;-753;1
2426;-732;1
2426;-740;1
2426;-761;1
2477;-738;1
2477;-738;1
2477;-750;1
2477;-721;1
2477;-742;1
2477;-722;1
2477;-738;1
2477;-718;1
2477;-738;1
2477;-723;1
2477;-749;1
2477;-758;1
2477;-735;1
2477;-749;1
2477;-776;1
2477;-756;1
2477;-758;1
2477;-762;1
2477;-781;1
2477;-747;1
2477;-765;1
2477;-749;1
2477;-741;1
2477;-732;1
2477;-724;1
2477;-708;1
2477;-742;1
2477;-713;1
2477;-726;1
2477;-747;1
2477;-726;1
2477;-721;1
2477;-736;1
2477;-712;1
2477;-716;1
2477;-728;1
2477;-708;1
2477;-711;1
2477;-727;1
2477;-697;1
2477;-720;1
2477;-699;1
2477;-705;1
2477;-699;1
2477;-698;1
2477;-677;1
2477;-692;1
2477;-674;1
2544;-694;1
2544;-713;1
2544;-714;1
2544;-698;1
2544;-717;1
2544;-696;1
2544;-699;1
2544;-691;1
2544;-697;1
2544;-676;1
2544;-689;1
2544;-653;1
2544;-664;1
2544;-653;1
2544;-662;1
2544;-648;1
2544;-630;1
2544;-621;1
2544;-625;1
2544;-615;1
2544;-636;1
2544;-614;1
2544;-641;1
2544;-631;1
2544;-631;1
2544;-620;1
2544;-640;1
2544;-616;1
2544;-636;1
2544;-614;1
2544;-612;1
2544;-606;1
2544;-610;1
2544;-587;1
2544;-610;1
2544;-578;1
2544;-586;1
2544;-581;1
2544;-597;1
2544;-576;1
2544;-603;1
2544;-575;1
2544;-583;1
2544;-585;1
2544;-583;1
2544;-567;1
2544;-577;1
2544;-591;1
2544;-570;1
2544;-572;1
2544;-579;1
2544;-553;1
2544;-568;1
2544;-543;1
2544;-554;1
2544;-525;1
2544;-528;1
2544;-512;1
2544;-523;1
2544;-531;1
2544;-517;1
2544;-506;1
2544;-522;1
2544;-507;1
2544;-512;1
2544;-522;1
2596;-510;1
2596;-505;1
2596;-518;1
2596;-484;1
2596;-502;1
2596;-488;1
2596;-478;1
2596;-478;1
2596;-491;1
2596;-452;1
2596;-460;1
2596;-445;1
2596;-450;1
2596;-463;1
2596;-465;1
2596;-443;1
2596;-465;1
2596;-447;1
2596;-448;1
2596;-451;1
2596;-455;1
2596;-422;1
2596;-428;1
2596;-431;1
2596;-408;1
2596;-410;1
2596;-409;1
2596;-384;1
2596;-389;1
2596;-400;1
2596;-370;1
2596;-372;1
2596;-369;1
2596;-381;1
2596;-372;1
2596;-381;1
2596;-377;1
2596;-367;1
2596;-383;1
2596;-359;1
2596;-362;1
2596;-379;1
2596;-349;1
2596;-350;1
2596;-361;1
2596;-337;1
2596;-363;1
2596;-330;1
2596;-353;1
2596;-335;1
2596;-352;1
2596;-333;1
2596;-349;1
2596;-360;1
2648;-351;1
2648;-356;1
2648;-372;1
2648;-351;1
2648;-371;1
2648;-348;1
2648;-370;1
2648;-345;1
2648;-349;1
2648;-327;1
2648;-333;1
2648;-341;1
2648;-327;1
2648;-332;1
2648;-352;1
2648;-330;1
2648;-340;1
2648;-346;1
2648;-373;1
2648;-347;1
2648;-373;1
2648;-358;1
2648;-366;1
2648;-387;1
2648;-375;1
2648;-375;1
2648;-400;1
2648;-367;1
2648;-369;1
2648;-386;1
2648;-366;1
2648;-359;1
2648;-374;1
2648;-349;1
2648;-371;1
2648;-354;1
2648;-362;1
2648;-366;1
2648;-376;1
2648;-372;1
2648;-391;1
2648;-380;1
2648;-409;1
2648;-395;1
2648;-416;1
2648;-392;1
2648;-407;1
2648;-383;1
2702;-406;1
2702;-390;1
2702;-394;1
2702;-378;1
2702;-389;1
2702;-378;1
2702;-397;1
2702;-379;1
2702;-409;1
2702;-391;1
2702;-402;1
2702;-426;1
2702;-417;1
2702;-419;1
2702;-408;1
2702;-428;1
2702;-422;1
2702;-427;1
2702;-416;1
2702;-414;1
2702;-434;1
2702;-411;1
2702;-421;1
2702;-431;1
2702;-419;1
2702;-426;1
2702;-447;1
2702;-428;1
2702;-468;1
2702;-454;1
2702;-463;1
2702;-468;1
2702;-487;1
2702;-471;1
2702;-489;1
2702;-465;1
2702;-477;1
2702;-480;1
2702;-482;1
2702;-460;1
2702;-468;1
2702;-479;1
2702;-459;1
2702;-470;1
2702;-486;1
2702;-468;1
2702;-491;1
2702;-479;1
2702;-498;1
2702;-504;1
2702;-521;1
2702;-512;1
2702;-535;1
2702;-521;1
2758;-526;1
2758;-515;1
2758;-542;1
2758;-511;1
2758;-531;1
2758;-522;1
2758;-526;1
2758;-514;1
2758;-515;1
2758;-499;1
2758;-524;1
2758;-514;1
2758;-517;1
2758;-514;1
2758;-523;1
2758;-513;1
2758;-533;1
2758;-519;1
2758;-540;1
2758;-518;1
2758;-537;1
2758;-526;1
2758;-547;1
2758;-522;1
2758;-534;1
2758;-528;1
2758;-542;1
2758;-525;1
2758;-540;1
2758;-519;1
2758;-542;1
2758;-510;1
2758;-546;1
2758;-541;1
2758;-547;1
2758;-558;1
2758;-541;1
2758;-551;1
2758;-563;1
2758;-535;1
2758;-549;1
2758;-543;1
2758;-545;1
2758;-541;1
2758;-537;1
2758;-528;1
2758;-525;1
2758;-538;1
2758;-533;1
2758;-527;1
2758;-540;1
2758;-515;1
2758;-551;1
2758;-534;1
2808;-536;1
2808;-546;1
2808;-570;1
2808;-553;1
2808;-577;1
2808;-559;1
2808;-564;1
2808;-564;1
2808;-555;1
2808;-522;1
2808;-549;1
2808;-519;1
2808;-533;1
2808;-511;1
2808;-537;1
2808;-522;1
2808;-543;1
2808;-532;1
2808;-561;1
2808;-540;1
2808;-564;1
2808;-547;1
2808;-569;1
2808;-560;1
2808;-565;1
2808;-579;1
2808;-605;1
2808;-573;1
2808;-590;1
2808;-577;1
2808;-573;1
2808;-548;1
2808;-568;1
2808;-551;1
2808;-559;1
2808;-580;1
2808;-565;1
2808;-563;1
2808;-575;1
2808;-549;1
2808;-572;1
2808;-558;1
2808;-558;1
2808;-567;1
2808;-572;1
2808;-559;1
2808;-576;1
2808;-546;1
2808;-565;1
2808;-554;1
2808;-558;1
2808;-533;1
2808;-545;1
2808;-549;1
2884;-529;1
2884;-532;1
2884;-540;1
2884;-516;1
2884;-532;1
2884;-541;1
2884;-521;1
2884;-527;1
2884;-539;1
2884;-515;1
2884;-520;1
2884;-522;1
2884;-537;1
2884;-517;1
2884;-531;1
2884;-512;1
2884;-512;1
2884;-501;1
2884;-496;1
2884;-500;1
2884;-497;1
2884;-487;1
2884;-510;1
2884;-502;1
2884;-515;1
2884;-503;1
2884;-518;1
2884;-500;1
2884;-520;1
2884;-501;1
2884;-503;1
2884;-514;1
2884;-513;1
2884;-487;1
2884;-494;1
2884;-502;1
2884;-482;1
2884;-493;1
2884;-501;1
2884;-480;1
2884;-506;1
2884;-484;1
2884;-510;1
2884;-481;1
2884;-505;1
2884;-489;1
2884;-506;1
2884;-492;1
2914;-518;1
2914;-493;1
2914;-514;1
2914;-488;1
2914;-492;1
2914;-499;1
2914;-509;1
2914;-486;1
2914;-504;1
2914;-478;1
2914;-501;1
2914;-487;1
2914;-487;1
2914;-487;1
2914;-496;1
2914;-491;1
2914;-488;1
2914;-492;1
2914;-484;1
2914;-487;1
2914;-511;1
2914;-497;1
2914;-521;1
2914;-498;1
2914;-524;1
2914;-525;1
2914;-545;1
2914;-528;1
2914;-556;1
2914;-546;1
2914;-583;1
2914;-570;1
2914;-606;1
2914;-609;1
2914;-619;1
2914;-639;1
2914;-623;1
2914;-632;1
2914;-652;1
2914;-638;1
2914;-628;1
2914;-614;1
2914;-571;1
2914;-562;1
2914;-552;1
2914;-491;1
2914;-466;1
2914;-416;1
2914;-397;1
2914;-383;1
2914;-373;1
2914;-307;1
2914;-255;1
2914;-205;1
2968;-189;1
2968;-193;1
2968;-232;1
2968;-234;1
2968;-274;1
2968;-185;1
2968;-170;1
2968;-237;1
2968;-278;1
2968;-278;1
2968;-318;1
2968;-318;1
2968;-328;1
2968;-447;1
2968;-398;1
2968;-386;1
2968;-420;1
2968;-352;1
2968;-445;1
2968;-447;1
2968;-468;1
2968;-465;1
2968;-480;1
2968;-492;1
2968;-469;1
2968;-470;1
2968;-485;1
2968;-467;1
2968;-482;1
2968;-528;1
2968;-465;1
2968;-452;1
2968;-461;1
2968;-367;1
2968;-449;1
2968;-445;1
2968;-464;1
2968;-446;1
2968;-465;1
2968;-437;1
2968;-451;1
2968;-469;1
2968;-457;1
2968;-450;1
2968;-459;1
2968;-508;1
2968;-464;1
2968;-455;1
3019;-433;1
3019;-366;1
3019;-454;1
3019;-428;1
3019;-440;1
3019;-448;1
3019;-431;1
3019;-437;1
3019;-447;1
3019;-438;1
3019;-449;1
3019;-422;1
3019;-435;1
3019;-501;1
3019;-458;1
3019;-421;1
3019;-429;1
3019;-345;1
3019;-429;1
3019;-422;1
3019;-440;1
3019;-420;1
3019;-437;1
3019;-418;1
3019;-434;1
3019;-419;1
3019;-433;1
3019;-412;1
3019;-434;1
3019;-495;1
3019;-456;1
3019;-424;1
3019;-444;1
3019;-361;1
3019;-443;1
3019;-435;1
3019;-432;1
3019;-433;1
3019;-447;1
3019;-423;1
3019;-542;1
3019;-552;1
3019;-497;1
3019;-484;1
3019;-486;1
3019;-459;1
3019;-471;1
3019;-455;1
3075;-455;1
3075;-455;1
3075;-473;1
3075;-447;1
3075;-466;1
3075;-445;1
3075;-463;1
3075;-440;1
3075;-457;1
3075;-438;1
3075;-443;1
3075;-426;1
3075;-448;1
3075;-426;1
3075;-445;1
3075;-419;1
3075;-447;1
3075;-432;1
3075;-445;1
3075;-423;1
3075;-458;1
3075;-433;1
3075;-455;1
3075;-443;1
3075;-461;1
3075;-448;1
3075;-471;1
3075;-443;1
3075;-452;1
3075;-463;1
3075;-461;1
3075;-453;1
3075;-463;1
3075;-440;1
3075;-456;1
3075;-436;1
3075;-456;1
3075;-442;1
3075;-449;1
3075;-437;1
3075;-458;1
3075;-446;1
3075;-453;1
3075;-468;1
3075;-480;1
3075;-449;1
3075;-467;1
3075;-450;1
3075;-463;1
3075;-463;1
3075;-480;1
3075;-449;1
3075;-465;1
3075;-444;1
3075;-446;1
3075;-451;1
3075;-466;1
3075;-439;1
3075;-448;1
3075;-469;1
3127;-450;1
3127;-459;1
3127;-461;1
3127;-451;1
3127;-467;1
3127;-465;1
3127;-471;1
3127;-449;1
3127;-468;1
3127;-450;1
3127;-455;1
3127;-442;1
3127;-444;1
3127;-442;1
3127;-452;1
3127;-439;1
3127;-438;1
3127;-451;1
3127;-447;1
3127;-448;1
3127;-461;1
3127;-443;1
3127;-465;1
3127;-449;1
3127;-463;1
3127;-447;1
3127;-467;1
3127;-443;1
3127;-444;1
3127;-454;1
3127;-439;1
3127;-439;1
3127;-461;1
3127;-444;1
3127;-448;1
3127;-456;1
3127;-427;1
3127;-433;1
3127;-462;1
3127;-441;1
3127;-453;1
3127;-464;1
3127;-444;1
3127;-450;1
3127;-462;1
3127;-439;1
3127;-464;1
3127;-442;1
3183;-461;1
3183;-442;1
3183;-468;1
3183;-433;1
3183;-442;1
3183;-442;1
3183;-439;1
3183;-433;1
3183;-454;1
3183;-436;1
3183;-444;1
3183;-454;1
3183;-440;1
3183;-442;1
3183;-458;1
3183;-437;1
3183;-452;1
3183;-433;1
3183;-451;1
3183;-426;1
3183;-450;1
3183;-414;1
3183;-418;1
3183;-436;1
3183;-411;1
3183;-405;1
3183;-416;1
3183;-389;1
3183;-404;1
3183;-389;1
3183;-403;1
3183;-378;1
3183;-393;1
3183;-364;1
3183;-387;1
3183;-363;1
3183;-371;1
3183;-348;1
3183;-364;1
3183;-336;1
3183;-357;1
3183;-338;1
3183;-337;1
3183;-336;1
3183;-345;1
3183;-328;1
3183;-340;1
3183;-342;1
3183;-331;1
3183;-328;1
3183;-345;1
3183;-323;1
3183;-351;1
3183;-328;1
3183;-343;1
3183;-324;1
3183;-343;1
3183;-337;1
3183;-350;1
3183;-372;1
3232;-346;1
3232;-355;1
3232;-376;1
3232;-364;1
3232;-367;1
3232;-386;1
3232;-358;1
3232;-365;1
3232;-388;1
3232;-371;1
3232;-402;1
3232;-384;1
3232;-388;1
3232;-396;1
3232;-404;1
3232;-386;1
3232;-401;1
3232;-378;1
3232;-386;1
3232;-395;1
3232;-398;1
3232;-379;1
3232;-379;1
3232;-387;1
3232;-361;1
3232;-368;1
3232;-344;1
3232;-350;1
3232;-342;1
3232;-338;1
3232;-336;1
3232;-332;1
3232;-345;1
3232;-341;1
3232;-364;1
3232;-390;1
3232;-397;1
3232;-415;1
3232;-444;1
3232;-434;1
3232;-473;1
3232;-473;1
3284;-512;1
3284;-509;1
3284;-552;1
3284;-541;1
3284;-562;1
3284;-544;1
3284;-555;1
3284;-547;1
3284;-584;1
3284;-590;1
3284;-647;1
3284;-679;1
3284;-752;1
3284;-786;1
3284;-868;1
3284;-891;1
3284;-976;1
3284;-1003;1
3284;-1065;1
3284;-1053;1
3284;-880;1
3284;-537;1
3284;-350;1
3284;-264;1
3284;-208;1
3284;-160;1
3284;-137;1
3284;-200;1
3284;-137;1
3284;-152;1
3284;-146;1
3284;-86;1
3284;-158;1
3284;-129;1
3284;-141;1
3284;-126;1
3284;-134;1
3284;-154;1
3284;-183;1
3284;-181;1
3284;-229;1
3284;-243;1
3284;-272;1
3284;-362;1
3284;-338;1
3284;-321;1
3284;-337;1
3284;-272;1
3284;-372;1
3284;-360;1
3284;-399;1
3284;-394;1
3284;-422;1
3284;-404;1
3339;-422;1
3339;-435;1
3339;-450;1
3339;-446;1
3339;-478;1
3339;-540;1
3339;-496;1
3339;-498;1
3339;-508;1
3339;-421;1
3339;-489;1
3339;-490;1
3339;-505;1
3339;-490;1
3339;-514;1
3339;-509;1
3339;-513;1
3339;-513;1
3339;-487;1
3339;-485;1
3339;-498;1
3339;-549;1
3339;-510;1
3339;-495;1
3339;-505;1
3339;-424;1
3339;-515;1
3339;-493;1
3339;-492;1
3339;-484;1
3339;-492;1
3339;-507;1
3339;-531;1
3339;-515;1
3339;-528;1
3339;-512;1
3339;-489;1
3339;-559;1
3339;-517;1
3339;-477;1
3339;-480;1
3339;-441;1
3339;-488;1
3339;-497;1
3339;-517;1
3339;-497;1
3339;-507;1
3339;-505;1
3339;-486;1
3339;-514;1
3339;-525;1
3339;-510;1
3339;-532;1
3339;-569;1
3395;-531;1
3395;-500;1
3395;-500;1
3395;-434;1
3395;-502;1
3395;-502;1
3395;-497;1
3395;-601;1
3395;-630;1
3395;-580;1
3395;-591;1
3395;-575;1
3395;-565;1
3395;-567;1
3395;-581;1
3395;-558;1
3395;-579;1
3395;-557;1
3395;-560;1
3395;-545;1
3395;-562;1
3395;-528;1
3395;-551;1
3395;-527;1
3395;-545;1
3395;-517;1
3395;-544;1
3395;-533;1
3395;-550;1
3395;-537;1
3395;-563;1
3395;-541;1
3395;-557;1
3395;-532;1
3395;-561;1
3395;-575;1
3395;-551;1
3395;-559;1
3395;-570;1
3395;-549;1
3395;-551;1
3395;-561;1
3395;-540;1
3395;-539;1
3395;-525;1
3395;-531;1
3395;-532;1
3395;-543;1
3395;-536;1
3395;-532;1
3395;-549;1
3395;-524;1
3395;-536;1
3395;-529;1
3446;-516;1
3446;-527;1
3446;-540;1
3446;-521;1
3446;-548;1
3446;-533;1
3446;-545;1
3446;-509;1
3446;-525;1
3446;-495;1
3446;-500;1
3446;-514;1
3446;-495;1
3446;-500;1
3446;-518;1
3446;-503;1
3446;-519;1
3446;-496;1
3446;-489;1
3446;-498;1
3446;-502;1
3446;-483;1
3446;-501;1
3446;-487;1
3446;-508;1
3446;-466;1
3446;-481;1
3446;-463;1
3446;-474;1
3446;-474;1
3446;-472;1
3446;-463;1
3446;-485;1
3446;-467;1
3446;-494;1
3446;-486;1
3446;-475;1
3446;-470;1
3446;-490;1
3446;-479;1
3446;-491;1
3446;-506;1
3446;-491;1
3446;-479;1
3446;-496;1
3446;-468;1
3446;-473;1
3446;-493;1
3501;-471;1
3501;-469;1
3501;-487;1
3501;-467;1
3501;-489;1
3501;-475;1
3501;-508;1
3501;-478;1
3501;-503;1
3501;-481;1
3501;-493;1
3501;-507;1
3501;-483;1
3501;-483;1
3501;-496;1
3501;-466;1
3501;-471;1
3501;-478;1
3501;-462;1
3501;-475;1
3501;-481;1
3501;-456;1
3501;-469;1
3501;-476;1
3501;-454;1
3501;-476;1
3501;-466;1
3501;-459;1
3501;-477;1
3501;-468;1
3501;-478;1
3501;-485;1
3501;-497;1
3501;-481;1
3501;-502;1
3501;-495;1
3501;-518;1
3501;-509;1
3501;-529;1
3501;-524;1
3501;-568;1
3501;-557;1
3501;-590;1
3501;-591;1
3501;-620;1
3501;-610;1
3501;-651;1
3501;-641;1
3501;-668;1
3501;-658;1
3501;-686;1
3501;-640;1
3501;-623;1
3501;-618;1
3576;-604;1
3576;-584;1
3576;-567;1
3576;-486;1
3576;-466;1
3576;-419;1
3576;-413;1
3576;-358;1
3576;-334;1
3576;-259;1
3576;-248;1
3576;-236;1
3576;-249;1
3576;-260;1
3576;-300;1
3576;-316;1
3576;-357;1
3576;-401;1
3576;-412;1
3576;-409;1
3576;-435;1
3576;-427;1
3576;-466;1
3576;-467;1
3576;-488;1
3576;-501;1
3576;-521;1
3576;-506;1
3576;-540;1
3576;-539;1
3576;-560;1
3576;-544;1
3576;-542;1
3576;-525;1
3576;-542;1
3576;-548;1
3576;-537;1
3576;-551;1
3576;-541;1
3576;-509;1
3576;-526;1
3576;-506;1
3576;-529;1
3576;-507;1
3576;-521;1
3576;-503;1
3576;-527;1
3576;-510;1
3576;-532;1
3576;-513;1
3576;-536;1
3576;-512;1
3576;-527;1
3576;-515;1
3606;-527;1
3606;-524;1
3606;-531;1
3606;-518;1
3606;-509;1
3606;-511;1
3606;-504;1
3606;-501;1
3606;-517;1
3606;-493;1
3606;-509;1
3606;-525;1
3606;-513;1
3606;-519;1
3606;-538;1
3606;-518;1
3606;-532;1
3606;-541;1
3606;-508;1
3606;-528;1
3606;-535;1
3606;-511;1
3606;-531;1
3606;-500;1
3606;-505;1
3606;-508;1
3606;-513;1
3606;-487;1
3606;-497;1
3606;-514;1
3606;-496;1
3606;-506;1
3606;-525;1
3606;-498;1
3606;-516;1
3606;-495;1
3606;-522;1
3606;-497;1
3606;-518;1
3606;-494;1
3606;-508;1
3606;-489;1
3606;-497;1
3606;-496;1
3606;-506;1
3606;-478;1
3606;-498;1
3606;-491;1
3660;-496;1
3660;-486;1
3660;-497;1
3660;-479;1
3660;-497;1
3660;-515;1
3660;-504;1
3660;-504;1
3660;-517;1
3660;-481;1
3660;-509;1
3660;-496;1
3660;-501;1
3660;-503;1
3660;-513;1
3660;-480;1
3660;-502;1
3660;-474;1
3660;-483;1
3660;-489;1
3660;-503;1
3660;-480;1
3660;-491;1
3660;-504;1
3660;-474;1
3660;-485;1
3660;-505;1
3660;-483;1
3660;-494;1
3660;-481;1
3660;-505;1
3660;-487;1
3660;-514;1
3660;-498;1
3660;-504;1
3660;-482;1
3660;-487;1
3660;-485;1
3660;-505;1
3660;-490;1
3660;-506;1
3660;-494;1
3660;-503;1
3660;-504;1
3660;-513;1
3660;-497;1
3660;-489;1
3660;-505;1
3660;-493;1
3660;-496;1
3660;-515;1
3660;-490;1
3660;-489;1
3660;-491;1
3712;-470;1
3712;-475;1
3712;-493;1
3712;-474;1
3712;-491;1
3712;-469;1
3712;-482;1
3712;-488;1
3712;-503;1
3712;-484;1
3712;-511;1
3712;-495;1
3712;-503;1
3712;-486;1
3712;-507;1
3712;-494;1
3712;-512;1
3712;-481;1
3712;-493;1
3712;-494;1
3712;-504;1
3712;-486;1
3712;-493;1
3712;-488;1
3712;-494;1
3712;-488;1
3712;-501;1
3712;-504;1
3712;-505;1
3712;-512;1
3712;-505;1
3712;-508;1
3712;-528;1
3712;-507;1
3712;-526;1
3712;-510;1
3712;-526;1
3712;-516;1
3712;-530;1
3712;-516;1
3712;-523;1
3712;-543;1
3712;-530;1
3712;-546;1
3712;-562;1
3712;-534;1
3712;-551;1
3712;-573;1
3712;-556;1
3712;-564;1
3712;-575;1
3712;-553;1
3712;-551;1
3712;-567;1
3768;-557;1
3768;-565;1
3768;-583;1
3768;-564;1
3768;-574;1
3768;-557;1
3768;-581;1
3768;-568;1
3768;-587;1
3768;-575;1
3768;-574;1
3768;-585;1
3768;-588;1
3768;-593;1
3768;-590;1
3768;-598;1
3768;-594;1
3768;-588;1
3768;-590;1
3768;-587;1
3768;-602;1
3768;-584;1
3768;-607;1
3768;-582;1
3768;-594;1
3768;-576;1
3768;-591;1
3768;-570;1
3768;-576;1
3768;-586;1
3768;-561;1
3768;-569;1
3768;-577;1
3768;-557;1
3768;-577;1
3768;-556;1
3768;-561;1
3768;-540;1
3768;-559;1
3768;-549;1
3768;-561;1
3768;-545;1
3768;-540;1
3768;-533;1
3768;-538;1
3768;-511;1
3768;-515;1
3768;-518;1
3824;-505;1
3824;-513;1
3824;-492;1
3824;-502;1
3824;-505;1
3824;-505;1
3824;-499;1
3824;-499;1
3824;-481;1
3824;-501;1
3824;-484;1
3824;-496;1
3824;-478;1
3824;-474;1
3824;-486;1
3824;-465;1
3824;-474;1
3824;-460;1
3824;-465;1
3824;-475;1
3824;-485;1
3824;-466;1
3824;-485;1
3824;-468;1
3824;-488;1
3824;-471;1
3824;-494;1
3824;-478;1
3824;-498;1
3824;-474;1
3824;-488;1
3824;-461;1
3824;-480;1
3824;-459;1
3824;-476;1
3824;-448;1
3824;-471;1
3824;-444;1
3824;-471;1
3824;-446;1
3824;-469;1
3824;-449;1
3824;-474;1
3824;-458;1
3824;-479;1
3824;-461;1
3824;-467;1
3824;-468;1
3824;-463;1
3824;-466;1
3824;-471;1
3824;-449;1
3824;-464;1
3824;-472;1
3824;-455;1
3824;-459;1
3824;-474;1
3824;-453;1
3824;-471;1
3824;-484;1
3876;-462;1
3876;-474;1
3876;-498;1
3876;-480;1
3876;-499;1
3876;-477;1
3876;-490;1
3876;-469;1
3876;-497;1
3876;-472;1
3876;-501;1
3876;-479;1
3876;-489;1
3876;-467;1
3876;-486;1
3876;-471;1
3876;-490;1
3876;-469;1
3876;-493;1
3876;-472;1
3876;-502;1
3876;-481;1
3876;-495;1
3876;-508;1
3876;-487;1
3876;-506;1
3876;-486;1
3876;-511;1
3876;-506;1
3876;-500;1
3876;-500;1
3876;-496;1
3876;-492;1
3876;-497;1
3876;-490;1
3876;-492;1
3876;-490;1
3876;-497;1
3876;-509;1
3876;-489;1
3876;-505;1
3876;-484;1
3876;-493;1
3876;-498;1
3876;-516;1
3876;-497;1
3876;-522;1
3876;-498;1
3926;-514;1
3926;-494;1
3926;-507;1
3926;-492;1
3926;-512;1
3926;-526;1
3926;-508;1
3926;-513;1
3926;-527;1
3926;-507;1
3926;-532;1
3926;-510;1
3926;-529;1
3926;-505;1
3926;-525;1
3926;-508;1
3926;-522;1
3926;-532;1
3926;-517;1
3926;-541;1
3926;-531;1
3926;-543;1
3926;-547;1
3926;-549;1
3926;-544;1
3926;-534;1
3926;-552;1
3926;-535;1
3926;-528;1
3926;-540;1
3926;-537;1
3926;-534;1
3926;-544;1
3926;-531;1
3926;-540;1
3926;-529;1
3926;-544;1
3926;-535;1
3926;-551;1
3926;-526;1
3926;-550;1
3926;-532;1
3926;-547;1
3926;-546;1
3926;-556;1
3926;-532;1
3926;-548;1
3926;-525;1
3926;-551;1
3926;-528;1
3926;-551;1
3926;-529;1
3926;-547;1
3926;-535;1
3982;-554;1
3982;-530;1
3982;-547;1
3982;-525;1
3982;-532;1
3982;-541;1
3982;-555;1
3982;-541;1
3982;-553;1
3982;-524;1
3982;-542;1
3982;-541;1
3982;-539;1
3982;-543;1
3982;-548;1
3982;-527;1
3982;-543;1
3982;-531;1
3982;-541;1
3982;-539;1
3982;-549;1
3982;-523;1
3982;-542;1
3982;-551;1
3982;-536;1
3982;-546;1
3982;-560;1
3982;-533;1
3982;-552;1
3982;-529;1
3982;-534;1
3982;-538;1
3982;-551;1
3982;-536;1
3982;-558;1
3982;-543;1
3982;-555;1
3982;-535;1
3982;-552;1
3982;-540;1
3982;-557;1
3982;-535;1
3982;-557;1
3982;-536;1
3982;-556;1
3982;-539;1
3982;-552;1
3982;-528;1
3982;-556;1
3982;-537;1
3982;-551;1
3982;-533;1
3982;-537;1
3982;-557;1
4035;-542;1
4035;-546;1
4035;-560;1
4035;-539;1
4035;-560;1
4035;-550;1
4035;-559;1
4035;-550;1
4035;-557;1
4035;-545;1
4035;-559;1
4035;-566;1
4035;-539;1
4035;-542;1
4035;-558;1
4035;-539;1
4035;-559;1
4035;-532;1
4035;-542;1
4035;-551;1
4035;-565;1
4035;-543;1
4035;-568;1
4035;-543;1
4035;-563;1
4035;-543;1
4035;-554;1
4035;-533;1
4035;-549;1
4035;-534;1
4035;-557;1
4035;-536;1
4035;-556;1
4035;-539;1
4035;-549;1
4035;-532;1
4035;-531;1
4035;-540;1
4035;-552;1
4035;-524;1
4035;-535;1
4035;-553;1
4035;-541;1
4035;-533;1
4035;-554;1
4035;-521;1
4035;-535;1
4035;-526;1
4090;-531;1
4090;-528;1
4090;-540;1
4090;-514;1
4090;-527;1
4090;-506;1
4090;-516;1
4090;-517;1
4090;-535;1
4090;-520;1
4090;-537;1
4090;-518;1
4090;-528;1
4090;-526;1
4090;-540;1
4090;-527;1
4090;-521;1
4090;-537;1
4090;-513;1
4090;-521;1
4090;-536;1
4090;-513;1
4090;-515;1
4090;-524;1
4090;-498;1
4090;-503;1
4090;-520;1
4090;-494;1
4090;-507;1
4090;-511;1
4090;-531;1
4090;-518;1
4090;-534;1
4090;-524;1
4090;-522;1
4090;-533;1
4090;-535;1
4090;-532;1
4090;-552;1
4090;-534;1
4090;-571;1
4090;-547;1
4090;-550;1
4090;-549;1
4090;-561;1
4090;-540;1
4090;-540;1
4090;-551;1
4090;-530;1
4090;-536;1
4090;-546;1
4090;-522;1
4090;-542;1
4090;-523;1
4145;-530;1
4145;-507;1
4145;-522;1
4145;-500;1
4145;-518;1
4145;-499;1
4145;-517;1
4145;-486;1
4145;-517;1
4145;-499;1
4145;-521;1
4145;-504;1
4145;-517;1
4145;-496;1
4145;-514;1
4145;-493;1
4145;-509;1
4145;-489;1
4145;-494;1
4145;-491;1
4145;-497;1
4145;-479;1
4145;-483;1
4145;-496;1
4145;-486;1
4145;-484;1
4145;-502;1
4145;-477;1
4145;-496;1
4145;-484;1
4145;-485;1
4145;-483;1
4145;-495;1
4145;-481;1
4145;-506;1
4145;-483;1
4145;-485;1
4145;-482;1
4145;-497;1
4145;-475;1
4145;-492;1
4145;-468;1
4145;-481;1
4145;-485;1
4145;-502;1
4145;-485;1
4145;-491;1
4145;-501;1
4145;-479;1
4145;-490;1
4145;-503;1
4145;-484;1
4145;-491;1
4145;-506;1
4198;-485;1
4198;-496;1
4198;-505;1
4198;-480;1
4198;-487;1
4198;-501;1
4198;-470;1
4198;-486;1
4198;-480;1
4198;-478;1
4198;-484;1
4198;-490;1
4198;-482;1
4198;-475;1
4198;-494;1
4198;-467;1
4198;-481;1
4198;-462;1
4198;-469;1
4198;-469;1
4198;-474;1
4198;-449;1
4198;-467;1
4198;-442;1
4198;-446;1
4198;-450;1
4198;-461;1
4198;-446;1
4198;-477;1
4198;-465;1
4198;-485;1
4198;-480;1
4198;-498;1
4198;-491;1
4198;-512;1
4198;-503;1
4198;-531;1
4198;-539;1
4198;-563;1
4198;-554;1
4198;-580;1
4198;-608;1
4198;-595;1
4198;-635;1
4198;-625;1
4198;-633;1
4198;-661;1
4198;-656;1
4198;-672;1
4198;-639;1
4198;-595;1
4198;-600;1
4198;-568;1
4198;-543;1
4263;-494;1
4263;-441;1
4263;-426;1
4263;-392;1
4263;-383;1
4263;-329;1
4263;-272;1
4263;-219;1
4263;-213;1
4263;-195;1
4263;-231;1
4263;-247;1
4263;-299;1
4263;-323;1
4263;-356;1
4263;-349;1
4263;-382;1
4263;-369;1
4263;-401;1
4263;-401;1
4263;-446;1
4263;-436;1
4263;-457;1
4263;-477;1
4263;-462;1
4263;-477;1
4263;-507;1
4263;-493;1
4263;-509;1
4263;-516;1
4263;-478;1
4263;-484;1
4263;-495;1
4263;-485;1
4263;-503;1
4263;-486;1
4263;-484;1
4263;-479;1
4263;-494;1
4263;-486;1
4263;-480;1
4263;-481;1
4263;-474;1
4263;-478;1
4263;-496;1
4263;-472;1
4263;-477;1
4263;-495;1
4263;-475;1
4263;-463;1
4263;-472;1
4263;-460;1
4263;-481;1
4263;-465;1
4263;-472;1
4263;-473;1
4263;-486;1
4263;-462;1
4263;-482;1
4263;-496;1
4263;-474;1
4263;-486;1
4263;-494;1
4263;-477;1
4263;-495;1
4263;-486;1
4318;-491;1
4318;-492;1
4318;-492;1
4318;-470;1
4318;-482;1
4318;-497;1
4318;-477;1
4318;-510;1
4318;-484;1
4318;-501;1
4318;-497;1
4318;-496;1
4318;-490;1
4318;-482;1
4318;-489;1
4318;-468;1
4318;-478;1
4318;-492;1
4318;-483;1
4318;-475;1
4318;-493;1
4318;-469;1
4318;-496;1
4318;-479;1
4318;-472;1
4318;-478;1
4318;-488;1
4318;-469;1
4318;-484;1
4318;-488;1
4318;-480;1
4318;-480;1
4318;-480;1
4318;-480;1
4318;-480;1
4318;-480;1
4318;-480;1
4318;-480;1
4318;-480;1
4318;-480;1
4318;-480;1
4318;-480;1
4318;-480;1
4318;-490;1
4318;-509;1
4318;-485;1
4318;-507;1
4318;-487;1
4318;-491;1
4318;-485;1
4318;-498;1
4318;-473;1
4318;-495;1
4318;-477;1
4374;-490;1
4374;-476;1
4374;-498;1
4374;-472;1
4374;-481;1
4374;-487;1
4374;-487;1
4374;-479;1
4374;-504;1
4374;-479;1
4374;-502;1
4374;-490;1
4374;-499;1
4374;-493;1
4374;-485;1
4374;-478;1
4374;-498;1
4374;-491;1
4374;-496;1
4374;-499;1
4374;-506;1
4374;-483;1
4374;-500;1
4374;-482;1
4374;-506;1
4374;-488;1
4374;-503;1
4374;-482;1
4374;-502;1
4374;-482;1
4374;-502;1
4374;-509;1
4374;-520;1
4374;-494;1
4374;-504;1
4374;-487;1
4374;-510;1
4374;-496;1
4374;-517;1
4374;-493;1
4374;-503;1
4374;-518;1
4374;-506;1
4374;-522;1
4374;-505;1
4374;-506;1
4374;-511;1
4374;-510;1
4374;-502;1
4374;-522;1
4374;-515;1
4374;-514;1
4374;-502;1
4374;-511;1
4426;-517;1
4426;-518;1
4426;-545;1
4426;-517;1
4426;-526;1
4426;-514;1
4426;-529;1
4426;-515;1
4426;-535;1
4426;-522;1
4426;-541;1
4426;-530;1
4426;-551;1
4426;-532;1
4426;-548;1
4426;-532;1
4426;-564;1
4426;-542;1
4426;-547;1
4426;-558;1
4426;-571;1
4426;-543;1
4426;-574;1
4426;-537;1
4426;-551;1
4426;-560;1
4426;-578;1
4426;-553;1
4426;-558;1
4426;-565;1
4426;-576;1
4426;-564;1
4426;-578;1
4426;-560;1
4426;-577;1
4426;-566;1
4426;-574;1
4426;-560;1
4426;-565;1
4426;-561;1
4426;-561;1
4426;-575;1
4426;-574;1
4426;-575;1
4426;-589;1
4426;-572;1
4426;-594;1
4426;-576;1
4426;-592;1
4426;-580;1
4426;-601;1
4426;-580;1
4426;-598;1
4426;-587;1
4478;-599;1
4478;-596;1
4478;-610;1
4478;-593;1
4478;-614;1
4478;-587;1
4478;-603;1
4478;-599;1
4478;-626;1
4478;-593;1
4478;-616;1
4478;-602;1
4478;-617;1
4478;-596;1
4478;-616;1
4478;-593;1
4478;-598;1
4478;-612;1
4478;-587;1
4478;-604;1
4478;-581;1
4478;-586;1
4478;-589;1
4478;-582;1
4478;-574;1
4478;-572;1
4478;-577;1
4478;-565;1
4478;-557;1
4478;-566;1
4478;-552;1
4478;-553;1
4478;-559;1
4478;-540;1
4478;-559;1
4478;-539;1
4478;-544;1
4478;-537;1
4478;-553;1
4478;-531;1
4478;-542;1
4478;-522;1
4478;-519;1
4478;-514;1
4478;-526;1
4478;-508;1
4478;-528;1
4478;-502;1
4528;-507;1
4528;-508;1
4528;-518;1
4528;-502;1
4528;-511;1
4528;-520;1
4528;-498;1
4528;-503;1
4528;-523;1
4528;-488;1
4528;-500;1
4528;-509;1
4528;-487;1
4528;-505;1
4528;-483;1
4528;-494;1
4528;-493;1
4528;-495;1
4528;-499;1
4528;-502;1
4528;-495;1
4528;-489;1
4528;-494;1
4528;-503;1
4528;-494;1
4528;-491;1
4528;-516;1
4528;-491;1
4528;-503;1
4528;-484;1
4528;-491;1
4528;-499;1
4528;-514;1
4528;-491;1
4528;-499;1
4528;-483;1
4528;-506;1
4528;-485;1
4528;-507;1
4528;-486;1
4528;-513;1
4528;-496;1
4528;-515;1
4528;-498;1
4528;-516;1
4528;-497;1
4528;-521;1
4528;-501;1
4528;-518;1
4528;-501;1
4528;-519;1
4528;-500;1
4528;-517;1
4528;-486;1
4605;-503;1
4605;-485;1
4605;-511;1
4605;-494;1
4605;-507;1
4605;-497;1
4605;-498;1
4605;-490;1
4605;-502;1
4605;-487;1
4605;-508;1
4605;-499;1
4605;-507;1
4605;-491;1
4605;-505;1
4605;-483;1
4605;-508;1
4605;-491;1
4605;-494;1
4605;-480;1
4605;-493;1
4605;-481;1
4605;-492;1
4605;-505;1
4605;-477;1
4605;-490;1
4605;-503;1
4605;-483;1
4605;-502;1
4605;-487;1
4605;-505;1
4605;-491;1
4605;-511;1
4605;-484;1
4605;-509;1
4605;-484;1
4605;-490;1
4605;-491;1
4605;-500;1
4605;-480;1
4605;-485;1
4605;-490;1
4605;-507;1
4605;-479;1
4605;-495;1
4605;-491;1
4605;-483;1
4605;-473;1
4605;-477;1
4605;-479;1
4605;-504;1
4605;-486;1
4605;-502;1
4605;-496;1
4634;-508;1
4634;-508;1
4634;-515;1
4634;-493;1
4634;-504;1
4634;-490;1
4634;-488;1
4634;-494;1
4634;-511;1
4634;-476;1
4634;-496;1
4634;-478;1
4634;-498;1
4634;-476;1
4634;-498;1
4634;-477;1
4634;-491;1
4634;-500;1
4634;-483;1
4634;-498;1
4634;-509;1
4634;-488;1
4634;-500;1
4634;-476;1
4634;-500;1
4634;-477;1
4634;-492;1
4634;-471;1
4634;-480;1
4634;-481;1
4634;-495;1
4634;-472;1
4634;-495;1
4634;-472;1
4634;-484;1
4634;-478;1
4634;-477;1
4634;-495;1
4634;-487;1
4634;-475;1
4634;-489;1
4634;-472;1
4634;-478;1
4634;-467;1
4634;-477;1
4634;-460;1
4634;-486;1
4634;-471;1
4690;-482;1
4690;-462;1
4690;-484;1
4690;-465;1
4690;-488;1
4690;-467;1
4690;-484;1
4690;-466;1
4690;-486;1
4690;-463;1
4690;-485;1
4690;-464;1
4690;-479;1
4690;-458;1
4690;-466;1
4690;-449;1
4690;-468;1
4690;-453;1
4690;-476;1
4690;-463;1
4690;-476;1
4690;-458;1
4690;-472;1
4690;-450;1
4690;-477;1
4690;-460;1
4690;-491;1
4690;-472;1
4690;-467;1
4690;-460;1
4690;-460;1
4690;-452;1
4690;-475;1
4690;-458;1
4690;-456;1
4690;-466;1
4690;-454;1
4690;-458;1
4690;-480;1
4690;-458;1
4690;-482;1
4690;-461;1
4690;-461;1
4690;-470;1
4690;-486;1
4690;-457;1
4690;-468;1
4690;-479;1
4740;-459;1
4740;-466;1
4740;-482;1
4740;-459;1
4740;-480;1
4740;-456;1
4740;-472;1
4740;-448;1
4740;-471;1
4740;-450;1
4740;-477;1
4740;-444;1
4740;-457;1
4740;-461;1
4740;-471;1
4740;-456;1
4740;-473;1
4740;-449;1
4740;-469;1
4740;-448;1
4740;-469;1
4740;-451;1
4740;-455;1
4740;-465;1
4740;-459;1
4740;-444;1
4740;-470;1
4740;-458;1
4740;-482;1
4740;-472;1
4740;-472;1
4740;-474;1
4740;-496;1
4740;-480;1
4740;-509;1
4740;-485;1
4740;-475;1
4740;-475;1
4740;-494;1
4740;-463;1
4740;-475;1
4740;-490;1
4740;-472;1
4740;-483;1
4740;-495;1
4740;-466;1
4740;-476;1
4740;-489;1
4740;-467;1
4740;-478;1
4740;-481;1
4740;-457;1
4740;-468;1
4740;-480;1
4797;-460;1
4797;-467;1
4797;-479;1
4797;-458;1
4797;-480;1
4797;-462;1
4797;-481;1
4797;-457;1
4797;-483;1
4797;-468;1
4797;-465;1
4797;-460;1
4797;-454;1
4797;-456;1
4797;-477;1
4797;-461;1
4797;-463;1
4797;-474;1
4797;-459;1
4797;-460;1
4797;-476;1
4797;-449;1
4797;-473;1
4797;-453;1
4797;-459;1
4797;-462;1
4797;-478;1
4797;-455;1
4797;-462;1
4797;-473;1
4797;-446;1
4797;-459;1
4797;-475;1
4797;-452;1
4797;-468;1
4797;-467;1
4797;-449;1
4797;-465;1
4797;-475;1
4797;-458;1
4797;-468;1
4797;-480;1
4797;-454;1
4797;-463;1
4797;-478;1
4797;-463;1
4797;-477;1
4797;-453;1
4797;-474;1
4797;-445;1
4797;-468;1
4797;-448;1
4797;-453;1
4797;-469;1
4846;-466;1
4846;-454;1
4846;-467;1
4846;-446;1
4846;-462;1
4846;-444;1
4846;-453;1
4846;-449;1
4846;-465;1
4846;-445;1
4846;-465;1
4846;-449;1
4846;-451;1
4846;-457;1
4846;-466;1
4846;-442;1
4846;-455;1
4846;-479;1
4846;-458;1
4846;-467;1
4846;-474;1
4846;-451;1
4846;-471;1
4846;-453;1
4846;-477;1
4846;-459;1
4846;-480;1
4846;-457;1
4846;-476;1
4846;-453;1
4846;-456;1
4846;-464;1
4846;-479;1
4846;-452;1
4846;-455;1
4846;-472;1
4846;-462;1
4846;-464;1
4846;-454;1
4846;-469;1
4846;-461;1
4846;-480;1
4846;-476;1
4846;-472;1
4846;-493;1
4846;-471;1
4846;-487;1
4846;-467;1
4902;-476;1
4902;-467;1
4902;-479;1
4902;-459;1
4902;-473;1
4902;-456;1
4902;-455;1
4902;-465;1
4902;-478;1
4902;-451;1
4902;-469;1
4902;-472;1
4902;-452;1
4902;-456;1
4902;-465;1
4902;-445;1
4902;-464;1
4902;-442;1
4902;-456;1
4902;-462;1
4902;-476;1
4902;-459;1
4902;-480;1
4902;-450;1
4902;-456;1
4902;-444;1
4902;-455;1
4902;-433;1
4902;-456;1
4902;-474;1
4902;-481;1
4902;-442;1
4902;-455;1
4902;-440;1
4902;-453;1
4902;-475;1
4902;-478;1
4902;-479;1
4902;-499;1
4902;-500;1
4902;-531;1
4902;-509;1
4902;-496;1
4902;-498;1
4902;-511;1
4902;-480;1
4902;-506;1
4902;-490;1
4902;-497;1
4902;-498;1
4902;-512;1
4902;-486;1
4902;-505;1
4902;-485;1
4952;-501;1
4952;-488;1
4952;-499;1
4952;-479;1
4952;-493;1
4952;-478;1
4952;-501;1
4952;-486;1
4952;-503;1
4952;-477;1
4952;-502;1
4952;-474;1
4952;-492;1
4952;-492;1
4952;-510;1
4952;-490;1
4952;-490;1
4952;-497;1
4952;-513;1
4952;-493;1
4952;-514;1
4952;-494;1
4952;-499;1
4952;-514;1
4952;-509;1
4952;-503;1
4952;-517;1
4952;-497;1
4952;-507;1
4952;-519;1
4952;-500;1
4952;-499;1
4952;-514;1
4952;-499;1
4952;-530;1
4952;-509;1
4952;-525;1
4952;-512;1
4952;-526;1
4952;-506;1
4952;-530;1
4952;-514;1
4952;-529;1
4952;-510;1
4952;-531;1
4952;-514;1
4952;-533;1
4952;-520;1
5003;-535;1
5003;-511;1
5003;-530;1
5003;-509;1
5003;-519;1
5003;-528;1
5003;-545;1
5003;-521;1
5003;-530;1
5003;-515;1
5003;-521;1
5003;-536;1
5003;-518;1
5003;-513;1
5003;-504;1
5003;-507;1
5003;-520;1
5003;-509;1
5003;-513;1
5003;-511;1
5003;-519;1
5003;-496;1
5003;-526;1
5003;-514;1
5003;-515;1
5003;-525;1
5003;-540;1
5003;-519;1
5003;-546;1
5003;-530;1
5003;-545;1
5003;-541;1
5003;-556;1
5003;-534;1
5003;-547;1
5003;-554;1
5003;-531;1
5003;-545;1
5003;-556;1
5003;-539;1
5003;-557;1
5003;-540;1
5003;-558;1
5003;-548;1
5003;-566;1
5003;-544;1
5003;-555;1
5003;-531;1
5054;-536;1
5054;-538;1
5054;-549;1
5054;-531;1
5054;-550;1
5054;-537;1
5054;-540;1
5054;-534;1
5054;-528;1
5054;-518;1
5054;-518;1
5054;-536;1
5054;-515;1
5054;-509;1
5054;-531;1
5054;-504;1
5054;-536;1
5054;-518;1
5054;-508;1
5054;-515;1
5054;-526;1
5054;-507;1
5054;-532;1
5054;-527;1
5054;-545;1
5054;-517;1
5054;-529;1
5054;-517;1
5054;-541;1
5054;-519;1
5054;-534;1
5054;-515;1
5054;-520;1
5054;-506;1
5054;-525;1
5054;-506;1
5054;-531;1
5054;-517;1
5054;-527;1
5054;-511;1
5054;-538;1
5054;-517;1
5054;-541;1
5054;-519;1
5054;-538;1
5054;-515;1
5054;-523;1
5054;-535;1
5054;-514;1
5054;-526;1
5054;-531;1
5054;-518;1
5054;-521;1
5054;-531;1
5110;-525;1
5110;-522;1
5110;-539;1
5110;-515;1
5110;-530;1
5110;-524;1
5110;-520;1
5110;-522;1
5110;-537;1
5110;-513;1
5110;-533;1
5110;-508;1
5110;-505;1
5110;-499;1
5110;-507;1
5110;-480;1
5110;-499;1
5110;-469;1
5110;-493;1
5110;-473;1
5110;-493;1
5110;-479;1
5110;-496;1
5110;-522;1
5110;-509;1
5110;-522;1
5110;-543;1
5110;-525;1
5110;-571;1
5110;-583;1
5110;-611;1
5110;-594;1
5110;-636;1
5110;-619;1
5110;-655;1
5110;-665;1
5110;-670;1
5110;-670;1
5110;-719;1
5110;-707;1
5110;-713;1
5110;-690;1
5110;-653;1
5110;-646;1
5110;-645;1
5110;-579;1
5110;-548;1
5110;-509;1
5110;-468;1
5110;-447;1
5110;-439;1
5110;-371;1
5110;-343;1
5110;-266;1
5161;-245;1
5161;-249;1
5161;-283;1
5161;-293;1
5161;-346;1
5161;-358;1
5161;-391;1
5161;-413;1
5161;-447;1
5161;-431;1
5161;-460;1
5161;-447;1
5161;-482;1
5161;-480;1
5161;-518;1
5161;-513;1
5161;-524;1
5161;-531;1
5161;-546;1
5161;-532;1
5161;-562;1
5161;-548;1
5161;-556;1
5161;-534;1
5161;-544;1
5161;-543;1
5161;-555;1
5161;-537;1
5161;-530;1
5161;-531;1
5161;-525;1
5161;-525;1
5161;-541;1
5161;-521;1
5161;-547;1
5161;-531;1
5161;-552;1
5161;-534;1
5161;-544;1
5161;-525;1
5161;-547;1
5161;-515;1
5161;-534;1
5161;-521;1
5161;-548;1
5161;-528;1
5161;-530;1
5161;-530;1
5215;-510;1
5215;-517;1
5215;-535;1
5215;-507;1
5215;-511;1
5215;-530;1
5215;-510;1
5215;-520;1
5215;-539;1
5215;-516;1
5215;-537;1
5215;-518;1
5215;-534;1
5215;-520;1
5215;-547;1
5215;-527;1
5215;-532;1
5215;-527;1
5215;-519;1
5215;-523;1
5215;-526;1
5215;-515;1
5215;-538;1
5215;-527;1
5215;-533;1
5215;-526;1
5215;-536;1
5215;-511;1
5215;-531;1
5215;-518;1
5215;-529;1
5215;-519;1
5215;-529;1
5215;-515;1
5215;-524;1
5215;-538;1
5215;-520;1
5215;-518;1
5215;-530;1
5215;-520;1
5215;-541;1
5215;-523;1
5215;-545;1
5215;-523;1
5215;-535;1
5215;-526;1
5215;-535;1
5215;-520;1
5215;-540;1
5215;-514;1
5215;-538;1
5215;-515;1
5215;-535;1
5215;-503;1
5267;-531;1
5267;-512;1
5267;-545;1
5267;-521;1
5267;-530;1
5267;-528;1
5267;-526;1
5267;-528;1
5267;-525;1
5267;-519;1
5267;-533;1
5267;-544;1
5267;-533;1
5267;-535;1
5267;-554;1
5267;-530;1
5267;-543;1
5267;-551;1
5267;-521;1
5267;-524;1
5267;-546;1
5267;-531;1
5267;-555;1
5267;-526;1
5267;-542;1
5267;-524;1
5267;-545;1
5267;-526;1
5267;-546;1
5267;-524;1
5267;-542;1
5267;-545;1
5267;-563;1
5267;-542;1
5267;-562;1
5267;-538;1
5267;-541;1
5267;-539;1
5267;-547;1
5267;-529;1
5267;-538;1
5267;-560;1
5267;-527;1
5267;-546;1
5267;-519;1
5267;-533;1
5267;-540;1
5267;-549;1
5267;-543;1
5267;-531;1
5267;-554;1
5267;-530;1
5267;-536;1
5267;-554;1
5317;-544;1
5317;-536;1
5317;-547;1
5317;-529;1
5317;-553;1
5317;-536;1
5317;-548;1
5317;-544;1
5317;-555;1
5317;-536;1
5317;-538;1
5317;-556;1
5317;-538;1
5317;-551;1
5317;-566;1
5317;-541;1
5317;-551;1
5317;-563;1
5317;-537;1
5317;-537;1
5317;-558;1
5317;-527;1
5317;-539;1
5317;-553;1
5317;-531;1
5317;-541;1
5317;-552;1
5317;-524;1
5317;-542;1
5317;-542;1
5317;-555;1
5317;-546;1
5317;-568;1
5317;-568;1
5317;-568;1
5317;-563;1
5317;-558;1
5317;-564;1
5317;-557;1
5317;-549;1
5317;-557;1
5317;-568;1
5317;-549;1
5317;-552;1
5317;-566;1
5317;-546;1
5317;-559;1
5317;-560;1
5372;-553;1
5372;-561;1
5372;-575;1
5372;-557;1
5372;-561;1
5372;-579;1
5372;-566;1
5372;-576;1
5372;-590;1
5372;-570;1
5372;-577;1
5372;-590;1
5372;-577;1
5372;-580;1
5372;-601;1
5372;-582;1
5372;-594;1
5372;-578;1
5372;-602;1
5372;-583;1
5372;-603;1
5372;-573;1
5372;-595;1
5372;-578;1
5372;-594;1
5372;-580;1
5372;-601;1
5372;-578;1
5372;-593;1
5372;-585;1
5372;-581;1
5372;-586;1
5372;-575;1
5372;-556;1
5372;-578;1
5372;-568;1
5372;-580;1
5372;-570;1
5372;-570;1
5372;-556;1
5372;-570;1
5372;-552;1
5372;-561;1
5372;-542;1
5372;-549;1
5372;-524;1
5372;-529;1
5372;-546;1
5425;-524;1
5425;-526;1
5425;-531;1
5425;-494;1
5425;-515;1
5425;-493;1
5425;-505;1
5425;-489;1
5425;-518;1
5425;-482;1
5425;-497;1
5425;-479;1
5425;-481;1
5425;-488;1
5425;-502;1
5425;-478;1
5425;-484;1
5425;-489;1
5425;-501;1
5425;-479;1
5425;-499;1
5425;-481;1
5425;-475;1
5425;-456;1
5425;-469;1
5425;-470;1
5425;-486;1
5425;-475;1
5425;-484;1
5425;-463;1
5425;-462;1
5425;-470;1
5425;-480;1
5425;-460;1
5425;-482;1
5425;-477;1
5425;-477;1
5425;-475;1
5425;-488;1
5425;-467;1
5425;-491;1
5425;-473;1
5425;-493;1
5425;-468;1
5425;-485;1
5425;-465;1
5425;-482;1
5425;-468;1
5425;-470;1
5425;-473;1
5425;-492;1
5425;-477;1
5425;-494;1
5425;-474;1
5476;-479;1
5476;-490;1
5476;-510;1
5476;-486;1
5476;-503;1
5476;-483;1
5476;-497;1
5476;-476;1
5476;-497;1
5476;-475;1
5476;-483;1
5476;-484;1
5476;-485;1
5476;-487;1
5476;-507;1
5476;-478;1
5476;-488;1
5476;-495;1
5476;-494;1
5476;-498;1
5476;-518;1
5476;-493;1
5476;-508;1
5476;-490;1
5476;-505;1
5476;-486;1
5476;-498;1
5476;-479;1
5476;-483;1
5476;-506;1
5476;-483;1
5476;-488;1
5476;-510;1
5476;-488;1
5476;-500;1
5476;-482;1
5476;-508;1
5476;-508;1
5476;-508;1
5476;-508;1
5476;-508;1
5476;-508;1
5476;-508;1
5476;-508;1
5476;-508;1
5476;-508;1
5476;-508;1
5476;-508;1
5476;-508;1
5476;-500;1
5476;-514;1
5476;-491;1
5476;-499;1
5476;-493;1
5476;-505;1
5476;-495;1
5476;-516;1
5476;-500;1
5476;-509;1
5476;-506;1
5527;-513;1
5527;-510;1
5527;-524;1
5527;-511;1
5527;-529;1
5527;-512;1
5527;-518;1
5527;-526;1
5527;-532;1
5527;-510;1
5527;-523;1
5527;-537;1
5527;-521;1
5527;-518;1
5527;-535;1
5527;-516;1
5527;-534;1
5527;-520;1
5527;-521;1
5527;-523;1
5527;-541;1
5527;-520;1
5527;-540;1
5527;-519;1
5527;-523;1
5527;-531;1
5527;-540;1
5527;-517;1
5527;-538;1
5527;-523;1
5527;-537;1
5527;-515;1
5527;-533;1
5527;-503;1
5527;-532;1
5527;-504;1
5527;-522;1
5527;-510;1
5527;-531;1
5527;-515;1
5527;-517;1
5527;-520;1
5527;-519;1
5527;-513;1
5527;-529;1
5527;-507;1
5527;-528;1
5527;-519;1
5579;-510;1
5579;-521;1
5579;-533;1
5579;-514;1
5579;-522;1
5579;-507;1
5579;-507;1
5579;-507;1
5579;-526;1
5579;-509;1
5579;-530;1
5579;-505;1
5579;-532;1
5579;-514;1
5579;-531;1
5579;-512;1
5579;-520;1
5579;-533;1
5579;-515;1
5579;-527;1
5579;-542;1
5579;-513;1
5579;-524;1
5579;-538;1
5579;-511;1
5579;-522;1
5579;-531;1
5579;-516;1
5579;-526;1
5579;-541;1
5579;-517;1
5579;-537;1
5579;-517;1
5579;-527;1
5579;-543;1
5579;-528;1
5579;-532;1
5579;-525;1
5579;-530;1
5579;-515;1
5579;-540;1
5579;-534;1
5579;-532;1
5579;-524;1
5579;-534;1
5579;-512;1
5579;-525;1
5579;-539;1
5633;-521;1
5633;-519;1
5633;-536;1
5633;-508;1
5633;-516;1
5633;-535;1
5633;-509;1
5633;-527;1
5633;-544;1
5633;-517;1
5633;-532;1
5633;-510;1
5633;-533;1
5633;-515;1
5633;-529;1
5633;-503;1
5633;-515;1
5633;-532;1
5633;-513;1
5633;-528;1
5633;-543;1
5633;-516;1
5633;-537;1
5633;-522;1
5633;-535;1
5633;-527;1
5633;-520;1
5633;-520;1
5633;-524;1
5633;-520;1
5633;-516;1
5633;-518;1
5633;-531;1
5633;-511;1
5633;-528;1
5633;-503;1
5633;-516;1
5633;-503;1
5633;-522;1
5633;-510;1
5633;-527;1
5633;-516;1
5633;-524;1
5633;-533;1
5633;-544;1
5633;-522;1
5633;-537;1
5633;-518;1
5633;-542;1
5633;-528;1
5633;-550;1
5633;-522;1
5633;-527;1
5633;-528;1
5684;-512;1
5684;-518;1
5684;-528;1
5684;-512;1
5684;-531;1
5684;-515;1
5684;-519;1
5684;-523;1
5684;-542;1
5684;-519;1
5684;-538;1
5684;-514;1
5684;-534;1
5684;-521;1
5684;-538;1
5684;-519;1
5684;-520;1
5684;-525;1
5684;-512;1
5684;-508;1
5684;-516;1
5684;-501;1
5684;-506;1
5684;-520;1
5684;-512;1
5684;-521;1
5684;-526;1
5684;-501;1
5684;-520;1
5684;-508;1
5684;-514;1
5684;-518;1
5684;-529;1
5684;-510;1
5684;-519;1
5684;-498;1
5684;-502;1
5684;-509;1
5684;-523;1
5684;-498;1
5684;-501;1
5684;-511;1
5684;-493;1
5684;-511;1
5684;-526;1
5684;-501;1
5684;-512;1
5684;-528;1
5740;-497;1
5740;-499;1
5740;-517;1
5740;-502;1
5740;-518;1
5740;-518;1
5740;-532;1
5740;-518;1
5740;-536;1
5740;-519;1
5740;-516;1
5740;-505;1
5740;-501;1
5740;-508;1
5740;-523;1
5740;-516;1
5740;-527;1
5740;-505;1
5740;-511;1
5740;-500;1
5740;-507;1
5740;-493;1
5740;-505;1
5740;-528;1
5740;-512;1
5740;-516;1
5740;-527;1
5740;-501;1
5740;-524;1
5740;-506;1
5740;-519;1
5740;-491;1
5740;-513;1
5740;-498;1
5740;-519;1
5740;-493;1
5740;-500;1
5740;-505;1
5740;-516;1
5740;-493;1
5740;-500;1
5740;-509;1
5740;-495;1
5740;-506;1
5740;-517;1
5740;-496;1
5740;-502;1
5740;-511;1
5740;-504;1
5740;-505;1
5740;-487;1
5740;-494;1
5740;-506;1
5740;-505;1
5791;-509;1
5791;-496;1
5791;-496;1
5791;-479;1
5791;-484;1
5791;-495;1
5791;-481;1
5791;-481;1
5791;-509;1
5791;-492;1
5791;-507;1
5791;-499;1
5791;-509;1
5791;-505;1
5791;-525;1
5791;-506;1
5791;-519;1
5791;-508;1
5791;-525;1
5791;-534;1
5791;-553;1
5791;-528;1
5791;-533;1
5791;-548;1
5791;-526;1
5791;-538;1
5791;-550;1
5791;-526;1
5791;-535;1
5791;-540;1
5791;-520;1
5791;-531;1
5791;-539;1
5791;-516;1
5791;-540;1
5791;-541;1
5791;-517;1
5791;-527;1
5791;-521;1
5791;-523;1
5791;-540;1
5791;-522;1
5791;-531;1
5791;-522;1
5791;-530;1
5791;-508;1
5791;-512;1
5791;-522;1
5791;-509;1
5791;-511;1
5791;-528;1
5791;-506;1
5791;-523;1
5791;-498;1
5843;-513;1
5843;-487;1
5843;-505;1
5843;-485;1
5843;-511;1
5843;-497;1
5843;-498;1
5843;-499;1
5843;-521;1
5843;-501;1
5843;-513;1
5843;-522;1
5843;-495;1
5843;-509;1
5843;-521;1
5843;-501;1
5843;-517;1
5843;-494;1
5843;-517;1
5843;-497;1
5843;-512;1
5843;-492;1
5843;-518;1
5843;-506;1
5843;-518;1
5843;-513;1
5843;-513;1
5843;-511;1
5843;-510;1
5843;-518;1
5843;-507;1
5843;-502;1
5843;-516;1
5843;-493;1
5843;-512;1
5843;-505;1
5843;-504;1
5843;-507;1
5843;-521;1
5843;-500;1
5843;-514;1
5843;-500;1
5843;-514;1
5843;-501;1
5843;-524;1
5843;-499;1
5843;-518;1
5843;-504;1
5843;-503;1
5843;-503;1
5843;-513;1
5843;-482;1
5843;-500;1
5843;-469;1
5894;-474;1
5894;-479;1
5894;-499;1
5894;-481;1
5894;-487;1
5894;-492;1
5894;-504;1
5894;-492;1
5894;-523;1
5894;-519;1
5894;-547;1
5894;-533;1
5894;-558;1
5894;-567;1
5894;-597;1
5894;-587;1
5894;-612;1
5894;-641;1
5894;-647;1
5894;-653;1
5894;-679;1
5894;-670;1
5894;-703;1
5894;-721;1
5894;-671;1
5894;-658;1
5894;-629;1
5894;-613;1
5894;-616;1
5894;-567;1
5894;-536;1
5894;-459;1
5894;-458;1
5894;-414;1
5894;-398;1
5894;-331;1
5894;-276;1
5894;-234;1
5894;-230;1
5894;-221;1
5894;-261;1
5894;-277;1
5949;-237;1
5949;-207;1
5949;-290;1
5949;-305;1
5949;-349;1
5949;-475;1
5949;-393;1
5949;-411;1
5949;-417;1
5949;-380;1
5949;-481;1
5949;-483;1
5949;-495;1
5949;-485;1
5949;-511;1
5949;-505;1
5949;-532;1
5949;-521;1
5949;-516;1
5949;-507;1
5949;-513;1
5949;-552;1
5949;-514;1
5949;-487;1
5949;-495;1
5949;-419;1
5949;-512;1
5949;-481;1
5949;-491;1
5949;-502;1
5949;-487;1
5949;-492;1
5949;-511;1
5949;-493;1
5949;-513;1
5949;-494;1
5949;-507;1
5949;-588;1
5949;-533;1
5949;-498;1
5949;-499;1
5949;-407;1
5949;-494;1
5949;-496;1
5949;-513;1
5949;-493;1
5949;-507;1
5949;-493;1
5949;-517;1
5949;-502;1
5949;-517;1
5949;-496;1
5949;-508;1
5949;-590;1
5949;-529;1
5949;-504;1
5949;-516;1
5949;-424;1
5949;-507;1
5949;-523;1
5998;-506;1
5998;-499;1
5998;-514;1
5998;-497;1
5998;-506;1
5998;-527;1
5998;-507;1
5998;-507;1
5998;-518;1
5998;-569;1
5998;-523;1
5998;-528;1
5998;-504;1
5998;-437;1
5998;-525;1
5998;-507;1
5998;-520;1
5998;-501;1
5998;-520;1
5998;-498;1
5998;-512;1
5998;-486;1
5998;-505;1
5998;-490;1
5998;-612;1
5998;-632;1
5998;-611;1
5998;-577;1
5998;-568;1
5998;-573;1
5998;-544;1
5998;-555;1
5998;-531;1
5998;-545;1
5998;-545;1
5998;-540;1
5998;-538;1
5998;-533;1
5998;-535;1
5998;-533;1
5998;-511;1
5998;-517;1
5998;-505;1
5998;-514;1
5998;-539;1
5998;-518;1
5998;-525;1
5998;-516;1
6052;-533;1
6052;-518;1
6052;-527;1
6052;-518;1
6052;-535;1
6052;-521;1
6052;-541;1
6052;-526;1
6052;-533;1
6052;-509;1
6052;-517;1
6052;-496;1
6052;-506;1
6052;-517;1
6052;-534;1
6052;-515;1
6052;-538;1
6052;-507;1
6052;-526;1
6052;-511;1
6052;-533;1
6052;-518;1
6052;-530;1
6052;-533;1
6052;-550;1
6052;-531;1
6052;-550;1
6052;-540;1
6052;-550;1
6052;-528;1
6052;-524;1
6052;-518;1
6052;-531;1
6052;-522;1
6052;-540;1
6052;-525;1
6052;-534;1
6052;-526;1
6052;-536;1
6052;-524;1
6052;-548;1
6052;-542;1
6052;-541;1
6052;-551;1
6052;-562;1
6052;-537;1
6052;-557;1
6052;-535;1
6052;-543;1
6052;-543;1
6052;-551;1
6052;-531;1
6052;-538;1
6052;-546;1
6104;-526;1
6104;-541;1
6104;-551;1
6104;-536;1
6104;-543;1
6104;-553;1
6104;-532;1
6104;-547;1
6104;-558;1
6104;-541;1
6104;-565;1
6104;-548;1
6104;-570;1
6104;-552;1
6104;-576;1
6104;-555;1
6104;-564;1
6104;-563;1
6104;-557;1
6104;-552;1
6104;-576;1
6104;-557;1
6104;-573;1
6104;-560;1
6104;-575;1
6104;-568;1
6104;-581;1
6104;-566;1
6104;-590;1
6104;-579;1
6104;-599;1
6104;-588;1
6104;-610;1
6104;-586;1
6104;-597;1
6104;-607;1
6104;-578;1
6104;-589;1
6104;-605;1
6104;-589;1
6104;-612;1
6104;-602;1
6104;-609;1
6104;-591;1
6104;-614;1
6104;-599;1
6104;-608;1
6104;-593;1
6156;-621;1
6156;-601;1
6156;-634;1
6156;-614;1
6156;-632;1
6156;-615;1
6156;-618;1
6156;-598;1
6156;-615;1
6156;-594;1
6156;-615;1
6156;-621;1
6156;-611;1
6156;-614;1
6156;-612;1
6156;-604;1
6156;-620;1
6156;-607;1
6156;-609;1
6156;-601;1
6156;-612;1
6156;-591;1
6156;-602;1
6156;-609;1
6156;-583;1
6156;-582;1
6156;-599;1
6156;-574;1
6156;-592;1
6156;-570;1
6156;-584;1
6156;-579;1
6156;-574;1
6156;-550;1
6156;-564;1
6156;-539;1
6156;-550;1
6156;-546;1
6156;-556;1
6156;-535;1
6156;-538;1
6156;-550;1
6156;-523;1
6156;-526;1
6156;-536;1
6156;-516;1
6156;-514;1
6156;-521;1
6209;-528;1
6209;-507;1
6209;-522;1
6209;-509;1
6209;-508;1
6209;-506;1
6209;-503;1
6209;-498;1
6209;-515;1
6209;-494;1
6209;-504;1
6209;-513;1
6209;-498;1
6209;-505;1
6209;-516;1
6209;-496;1
6209;-516;1
6209;-498;1
6209;-509;1
6209;-489;1
6209;-505;1
6209;-484;1
6209;-507;1
6209;-492;1
6209;-499;1
6209;-500;1
6209;-518;1
6209;-497;1
6209;-515;1
6209;-491;1
6209;-508;1
6209;-513;1
6209;-527;1
6209;-510;1
6209;-519;1
6209;-524;1
6209;-505;1
6209;-497;1
6209;-516;1
6209;-494;1
6209;-506;1
6209;-514;1
6209;-524;1
6209;-506;1
6209;-512;1
6209;-504;1
6209;-504;1
6209;-503;1
6209;-500;1
6209;-496;1
6209;-518;1
6209;-505;1
6209;-499;1
6209;-513;1
6262;-504;1
6262;-502;1
6262;-510;1
6262;-497;1
6262;-507;1
6262;-529;1
6262;-516;1
6262;-529;1
6262;-534;1
6262;-511;1
6262;-530;1
6262;-509;1
6262;-522;1
6262;-512;1
6262;-528;1
6262;-506;1
6262;-513;1
6262;-531;1
6262;-505;1
6262;-519;1
6262;-531;1
6262;-500;1
6262;-519;1
6262;-532;1
6262;-503;1
6262;-519;1
6262;-529;1
6262;-503;1
6262;-515;1
6262;-520;1
6262;-503;1
6262;-523;1
6262;-506;1
6262;-515;1
6262;-525;1
6262;-514;1
6262;-516;1
6262;-511;1
6262;-521;1
6262;-500;1
6262;-515;1
6262;-524;1
6262;-502;1
6262;-508;1
6262;-522;1
6262;-509;1
6262;-529;1
6262;-513;1
6332;-521;1
6332;-512;1
6332;-531;1
6332;-514;1
6332;-532;1
6332;-512;1
6332;-528;1
6332;-525;1
6332;-541;1
6332;-523;1
6332;-541;1
6332;-518;1
6332;-524;1
6332;-520;1
6332;-538;1
6332;-526;1
6332;-551;1
6332;-526;1
6332;-539;1
6332;-537;1
6332;-549;1
6332;-530;1
6332;-532;1
6332;-549;1
6332;-525;1
6332;-541;1
6332;-524;1
6332;-530;1
6332;-533;1
6332;-524;1
6332;-528;1
6332;-531;1
6332;-538;1
6332;-511;1
6332;-533;1
6332;-519;1
6332;-534;1
6332;-522;1
6332;-534;1
6332;-507;1
6332;-532;1
6332;-511;1
6332;-520;1
6332;-519;1
6332;-532;1
6332;-510;1
6332;-542;1
6332;-516;1
6362;-535;1
6362;-515;1
6362;-536;1
6362;-516;1
6362;-512;1
6362;-522;1
6362;-502;1
6362;-520;1
6362;-536;1
6362;-516;1
6362;-528;1
6362;-503;1
6362;-516;1
6362;-517;1
6362;-536;1
6362;-520;1
6362;-544;1
6362;-514;1
6362;-528;1
6362;-518;1
6362;-525;1
6362;-524;1
6362;-526;1
6362;-513;1
6362;-510;1
6362;-512;1
6362;-529;1
6362;-510;1
6362;-527;1
6362;-508;1
6362;-511;1
6362;-511;1
6362;-525;1
6362;-503;1
6362;-523;1
6362;-506;1
6362;-527;1
6362;-510;1
6362;-521;1
6362;-510;1
6362;-526;1
6362;-505;1
6362;-518;1
6362;-508;1
6362;-522;1
6362;-502;1
6362;-520;1
6362;-543;1
6362;-512;1
6362;-523;1
6362;-529;1
6362;-504;1
6362;-524;1
6362;-506;1
6418;-522;1
6418;-527;1
6418;-537;1
6418;-514;1
6418;-532;1
6418;-511;1
6418;-530;1
6418;-511;1
6418;-526;1
6418;-502;1
6418;-510;1
6418;-505;1
6418;-501;1
6418;-501;1
6418;-517;1
6418;-500;1
6418;-521;1
6418;-513;1
6418;-515;1
6418;-519;1
6418;-529;1
6418;-507;1
6418;-527;1
6418;-506;1
6418;-517;1
6418;-522;1
6418;-529;1
6418;-512;1
6418;-531;1
6418;-515;1
6418;-529;1
6418;-501;1
6418;-526;1
6418;-516;1
6418;-538;1
6418;-509;1
6418;-515;1
6418;-514;1
6418;-531;1
6418;-508;1
6418;-529;1
6418;-504;1
6418;-530;1
6418;-510;1
6418;-525;1
6418;-503;1
6418;-521;1
6418;-494;1
6418;-518;1
6418;-499;1
6418;-526;1
6418;-525;1
6418;-530;1
6418;-529;1
6470;-520;1
6470;-523;1
6470;-538;1
6470;-509;1
6470;-529;1
6470;-514;1
6470;-523;1
6470;-516;1
6470;-525;1
6470;-503;1
6470;-529;1
6470;-504;1
6470;-510;1
6470;-511;1
6470;-522;1
6470;-505;1
6470;-517;1
6470;-537;1
6470;-522;1
6470;-517;1
6470;-538;1
6470;-515;1
6470;-527;1
6470;-533;1
6470;-514;1
6470;-525;1
6470;-536;1
6470;-514;1
6470;-532;1
6470;-516;1
6470;-530;1
6470;-538;1
6470;-547;1
6470;-519;1
6470;-537;1
6470;-523;1
6470;-534;1
6470;-510;1
6470;-523;1
6470;-505;1
6470;-519;1
6470;-532;1
6470;-518;1
6470;-517;1
6470;-528;1
6470;-513;1
6470;-539;1
6470;-524;1
6470;-539;1
6470;-517;1
6470;-534;1
6470;-502;1
6470;-506;1
6470;-511;1
6526;-491;1
6526;-492;1
6526;-504;1
6526;-487;1
6526;-495;1
6526;-519;1
6526;-502;1
6526;-511;1
6526;-534;1
6526;-514;1
6526;-549;1
6526;-540;1
6526;-554;1
6526;-563;1
6526;-569;1
6526;-546;1
6526;-575;1
6526;-562;1
6526;-567;1
6526;-554;1
6526;-566;1
6526;-552;1
6526;-571;1
6526;-563;1
6526;-561;1
6526;-552;1
6526;-571;1
6526;-558;1
6526;-549;1
6526;-556;1
6526;-542;1
6526;-549;1
6526;-570;1
6526;-544;1
6526;-559;1
6526;-539;1
6526;-540;1
6526;-544;1
6526;-553;1
6526;-537;1
6526;-551;1
6526;-532;1
6526;-544;1
6526;-542;1
6526;-552;1
6526;-533;1
6526;-549;1
6526;-531;1
6580;-533;1
6580;-529;1
6580;-544;1
6580;-529;1
6580;-539;1
6580;-515;1
6580;-525;1
6580;-524;1
6580;-539;1
6580;-523;1
6580;-541;1
6580;-529;1
6580;-537;1
6580;-541;1
6580;-551;1
6580;-534;1
6580;-540;1
6580;-558;1
6580;-530;1
6580;-552;1
6580;-549;1
6580;-540;1
6580;-556;1
6580;-543;1
6580;-556;1
6580;-544;1
6580;-552;1
6580;-541;1
6580;-560;1
6580;-541;1
6580;-562;1
6580;-550;1
6580;-567;1
6580;-555;1
6580;-577;1
6580;-551;1
6580;-564;1
6580;-549;1
6580;-569;1
6580;-550;1
6580;-574;1
6580;-559;1
6580;-584;1
6580;-568;1
6580;-589;1
6580;-563;1
6580;-581;1
6580;-560;1
6580;-559;1
6580;-561;1
6580;-582;1
6580;-555;1
6580;-567;1
6580;-589;1
6633;-551;1
6633;-567;1
6633;-537;1
6633;-542;1
6633;-545;1
6633;-561;1
6633;-553;1
6633;-572;1
6633;-570;1
6633;-586;1
6633;-607;1
6633;-593;1
6633;-604;1
6633;-600;1
6633;-612;1
6633;-608;1
6633;-645;1
6633;-651;1
6633;-674;1
6633;-688;1
6633;-716;1
6633;-701;1
6633;-738;1
6633;-729;1
6633;-672;1
6633;-672;1
6633;-672;1
6633;-672;1
6633;-672;1
6633;-672;1
6633;-672;1
6633;-672;1
6633;-672;1
6633;-672;1
6633;-672;1
6633;-672;1
6633;-672;1
6633;-671;1
6633;-649;1
6633;-592;1
6633;-560;1
6633;-505;1
6633;-490;1
6633;-463;1
6633;-438;1
6633;-369;1
6633;-309;1
6633;-289;1
6633;-306;1
6633;-303;1
6633;-349;1
6633;-367;1
6633;-417;1
6633;-429;1
6633;-454;1
6633;-474;1
6633;-482;1
6633;-483;1
6633;-506;1
6633;-511;1
6684;-542;1
6684;-551;1
6684;-582;1
6684;-576;1
6684;-594;1
6684;-579;1
6684;-586;1
6684;-586;1
6684;-604;1
6684;-582;1
6684;-583;1
6684;-587;1
6684;-563;1
6684;-563;1
6684;-576;1
6684;-558;1
6684;-565;1
6684;-571;1
6684;-555;1
6684;-567;1
6684;-580;1
6684;-566;1
6684;-577;1
6684;-585;1
6684;-568;1
6684;-584;1
6684;-607;1
6684;-584;1
6684;-594;1
6684;-571;1
6684;-578;1
6684;-553;1
6684;-570;1
6684;-550;1
6684;-564;1
6684;-558;1
6684;-550;1
6684;-576;1
6684;-574;1
6684;-576;1
6684;-593;1
6684;-583;1
6684;-599;1
6684;-583;1
6684;-597;1
6684;-587;1
6684;-599;1
6684;-574;1
6740;-579;1
6740;-570;1
6740;-581;1
6740;-550;1
6740;-549;1
6740;-549;1
6740;-523;1
6740;-535;1
6740;-562;1
6740;-552;1
6740;-577;1
6740;-578;1
6740;-600;1
6740;-620;1
6740;-646;1
6740;-634;1
6740;-657;1
6740;-664;1
6740;-636;1
6740;-650;1
6740;-661;1
6740;-641;1
6740;-664;1
6740;-639;1
6740;-652;1
6740;-630;1
6740;-648;1
6740;-627;1
6740;-644;1
6740;-638;1
6740;-637;1
6740;-651;1
6740;-646;1
6740;-642;1
6740;-657;1
6740;-627;1
6740;-636;1
6740;-633;1
6740;-646;1
6740;-636;1
6740;-641;1
6740;-650;1
6740;-646;1
6740;-653;1
6740;-667;1
6740;-646;1
6740;-671;1
6740;-652;1
6740;-668;1
6740;-682;1
6740;-696;1
6740;-671;1
6740;-694;1
6740;-681;1
6793;-679;1
6793;-684;1
6793;-700;1
6793;-682;1
6793;-698;1
6793;-721;1
6793;-707;1
6793;-714;1
6793;-725;1
6793;-710;1
6793;-726;1
6793;-719;1
6793;-725;1
6793;-701;1
6793;-730;1
6793;-724;1
6793;-730;1
6793;-741;1
6793;-747;1
6793;-744;1
6793;-777;1
6793;-765;1
6793;-774;1
6793;-777;1
6793;-775;1
6793;-783;1
6793;-799;1
6793;-782;1
6793;-782;1
6793;-802;1
6793;-785;1
6793;-791;1
6793;-798;1
6793;-771;1
6793;-791;1
6793;-772;1
6793;-778;1
6793;-784;1
6793;-803;1
6793;-788;1
6793;-802;1
6793;-785;1
6793;-810;1
6793;-792;1
6793;-820;1
6793;-796;1
6793;-816;1
6793;-798;1
6793;-817;1
6793;-792;1
6793;-803;1
6793;-780;1
6793;-783;1
6793;-779;1
6844;-771;1
6844;-741;1
6844;-762;1
6844;-754;1
6844;-770;1
6844;-764;1
6844;-747;1
6844;-741;1
6844;-735;1
6844;-741;1
6844;-738;1
6844;-737;1
6844;-720;1
6844;-716;1
6844;-723;1
6844;-707;1
6844;-725;1
6844;-706;1
6844;-708;1
6844;-686;1
6844;-711;1
6844;-688;1
6844;-704;1
6844;-678;1
6844;-688;1
6844;-689;1
6844;-691;1
6844;-661;1
6844;-678;1
6844;-651;1
6844;-662;1
6844;-663;1
6844;-675;1
6844;-643;1
6844;-641;1
6844;-648;1
6844;-620;1
6844;-624;1
6844;-620;1
6844;-597;1
6844;-612;1
6844;-627;1
6844;-617;1
6844;-637;1
6844;-642;1
6844;-621;1
6844;-638;1
6844;-658;1
6844;-646;1
6844;-642;1
6844;-658;1
6844;-631;1
6844;-649;1
6844;-637;1
6901;-642;1
6901;-624;1
6901;-626;1
6901;-607;1
6901;-603;1
6901;-616;1
6901;-593;1
6901;-589;1
6901;-612;1
6901;-594;1
6901;-606;1
6901;-577;1
6901;-570;1
6901;-561;1
6901;-570;1
6901;-544;1
6901;-563;1
6901;-535;1
6901;-529;1
6901;-522;1
6901;-533;1
6901;-497;1
6901;-492;1
6901;-512;1
6901;-476;1
6901;-474;1
6901;-480;1
6901;-455;1
6901;-462;1
6901;-463;1
6901;-439;1
6901;-456;1
6901;-433;1
6901;-444;1
6901;-446;1
6901;-432;1
6901;-419;1
6901;-435;1
6901;-419;1
6901;-424;1
6901;-423;1
6901;-435;1
6901;-413;1
6901;-399;1
6901;-414;1
6901;-389;1
6901;-414;1
6901;-395;1
6951;-409;1
6951;-389;1
6951;-401;1
6951;-384;1
6951;-409;1
6951;-391;1
6951;-403;1
6951;-387;1
6951;-408;1
6951;-380;1
6951;-402;1
6951;-382;1
6951;-395;1
6951;-407;1
6951;-412;1
6951;-380;1
6951;-406;1
6951;-403;1
6951;-439;1
6951;-415;1
6951;-435;1
6951;-409;1
6951;-433;1
6951;-412;1
6951;-434;1
6951;-416;1
6951;-434;1
6951;-413;1
6951;-413;1
6951;-410;1
6951;-401;1
6951;-392;1
6951;-407;1
6951;-401;1
6951;-398;1
6951;-405;1
6951;-391;1
6951;-396;1
6951;-411;1
6951;-391;1
6951;-408;1
6951;-398;1
6951;-412;1
6951;-411;1
6951;-431;1
6951;-403;1
6951;-419;1
6951;-442;1
6951;-411;1
6951;-412;1
6951;-424;1
6951;-414;1
6951;-437;1
6951;-416;1
7020;-417;1
7020;-406;1
7020;-424;1
7020;-408;1
7020;-421;1
7020;-427;1
7020;-403;1
7020;-421;1
7020;-435;1
7020;-422;1
7020;-439;1
7020;-449;1
7020;-434;1
7020;-448;1
7020;-419;1
7020;-422;1
7020;-419;1
7020;-425;1
7020;-416;1
7020;-406;1
7020;-424;1
7020;-398;1
7020;-421;1
7020;-413;1
7020;-413;1
7020;-394;1
7020;-412;1
7020;-394;1
7020;-417;1
7020;-415;1
7020;-430;1
7020;-424;1
7020;-466;1
7020;-450;1
7020;-455;1
7020;-464;1
7020;-449;1
7020;-446;1
7020;-464;1
7020;-440;1
7020;-452;1
7020;-482;1
7020;-468;1
7020;-492;1
7020;-518;1
7020;-508;1
7020;-520;1
7020;-525;1
7054;-503;1
7054;-514;1
7054;-516;1
7054;-494;1
7054;-505;1
7054;-520;1
7054;-508;1
7054;-529;1
7054;-513;1
7054;-532;1
7054;-529;1
7054;-527;1
7054;-530;1
7054;-531;1
7054;-554;1
7054;-535;1
7054;-564;1
7054;-557;1
7054;-570;1
7054;-568;1
7054;-586;1
7054;-569;1
7054;-590;1
7054;-615;1
7054;-606;1
7054;-616;1
7054;-642;1
7054;-627;1
7054;-651;1
7054;-634;1
7054;-635;1
7054;-609;1
7054;-622;1
7054;-592;1
7054;-605;1
7054;-615;1
7054;-588;1
7054;-582;1
7054;-591;1
7054;-575;1
7054;-594;1
7054;-609;1
7054;-585;1
7054;-593;1
7054;-596;1
7054;-586;1
7054;-625;1
7054;-619;1
7054;-643;1
7054;-639;1
7054;-657;1
7054;-636;1
7054;-633;1
7054;-633;1
7107;-635;1
7107;-616;1
7107;-626;1
7107;-590;1
7107;-605;1
7107;-590;1
7107;-585;1
7107;-591;1
7107;-602;1
7107;-589;1
7107;-605;1
7107;-602;1
7107;-620;1
7107;-612;1
7107;-636;1
7107;-632;1
7107;-646;1
7107;-656;1
7107;-632;1
7107;-646;1
7107;-668;1
7107;-637;1
7107;-651;1
7107;-632;1
7107;-641;1
7107;-655;1
7107;-672;1
7107;-644;1
7107;-642;1
7107;-642;1
7107;-610;1
7107;-613;1
7107;-625;1
7107;-606;1
7107;-622;1
7107;-598;1
7107;-622;1
7107;-613;1
7107;-617;1
7107;-607;1
7107;-634;1
7107;-632;1
7107;-633;1
7107;-627;1
7107;-642;1
7107;-628;1
7107;-649;1
7107;-645;1
7162;-661;1
7162;-650;1
7162;-657;1
7162;-631;1
7162;-650;1
7162;-639;1
7162;-636;1
7162;-631;1
7162;-650;1
7162;-635;1
7162;-654;1
7162;-643;1
7162;-657;1
7162;-630;1
7162;-644;1
7162;-624;1
7162;-640;1
7162;-647;1
7162;-623;1
7162;-635;1
7162;-646;1
7162;-633;1
7162;-660;1
7162;-646;1
7162;-661;1
7162;-643;1
7162;-657;1
7162;-645;1
7162;-663;1
7162;-653;1
7162;-680;1
7162;-665;1
7162;-668;1
7162;-653;1
7162;-661;1
7162;-674;1
7162;-658;1
7162;-653;1
7162;-665;1
7162;-632;1
7162;-643;1
7162;-627;1
7162;-621;1
7162;-624;1
7162;-632;1
7162;-596;1
7162;-629;1
7162;-611;1
7162;-634;1
7162;-615;1
7162;-638;1
7162;-622;1
7162;-636;1
7162;-648;1
7217;-608;1
7217;-621;1
7217;-630;1
7217;-615;1
7217;-623;1
7217;-617;1
7217;-598;1
7217;-592;1
7217;-600;1
7217;-582;1
7217;-595;1
7217;-571;1
7217;-593;1
7217;-580;1
7217;-599;1
7217;-573;1
7217;-588;1
7217;-557;1
7217;-583;1
7217;-562;1
7217;-576;1
7217;-551;1
7217;-566;1
7217;-556;1
7217;-564;1
7217;-559;1
7217;-572;1
7217;-559;1
7217;-570;1
7217;-558;1
7217;-552;1
7217;-557;1
7217;-566;1
7217;-546;1
7217;-572;1
7217;-557;1
7217;-560;1
7217;-562;1
7217;-577;1
7217;-555;1
7217;-563;1
7217;-536;1
7217;-553;1
7217;-524;1
7217;-536;1
7217;-511;1
7217;-530;1
7217;-505;1
7217;-510;1
7217;-514;1
7217;-519;1
7217;-501;1
7217;-521;1
7217;-526;1
7270;-521;1
7270;-531;1
7270;-535;1
7270;-515;1
7270;-528;1
7270;-510;1
7270;-531;1
7270;-511;1
7270;-506;1
7270;-491;1
7270;-496;1
7270;-496;1
7270;-496;1
7270;-491;1
7270;-493;1
7270;-474;1
7270;-464;1
7270;-482;1
7270;-462;1
7270;-451;1
7270;-478;1
7270;-449;1
7270;-464;1
7270;-489;1
7270;-465;1
7270;-476;1
7270;-499;1
7270;-470;1
7270;-466;1
7270;-478;1
7270;-452;1
7270;-460;1
7270;-473;1
7270;-456;1
7270;-475;1
7270;-438;1
7270;-468;1
7270;-453;1
7270;-477;1
7270;-461;1
7270;-475;1
7270;-437;1
7270;-462;1
7270;-444;1
7270;-458;1
7270;-440;1
7270;-443;1
7270;-439;1
7270;-415;1
7270;-410;1
7270;-397;1
7270;-407;1
7270;-413;1
7270;-407;1
7327;-425;1
7327;-412;1
7327;-428;1
7327;-427;1
7327;-450;1
7327;-468;1
7327;-463;1
7327;-474;1
7327;-491;1
7327;-456;1
7327;-473;1
7327;-446;1
7327;-463;1
7327;-439;1
7327;-444;1
7327;-425;1
7327;-449;1
7327;-429;1
7327;-444;1
7327;-429;1
7327;-444;1
7327;-417;1
7327;-426;1
7327;-398;1
7327;-413;1
7327;-413;1
7327;-422;1
7327;-398;1
7327;-407;1
7327;-388;1
7327;-399;1
7327;-404;1
7327;-419;1
7327;-392;1
7327;-390;1
7327;-386;1
7327;-368;1
7327;-374;1
7327;-368;1
7327;-373;1
7327;-380;1
7327;-365;1
7327;-374;1
7327;-378;1
7327;-392;1
7327;-378;1
7327;-407;1
7327;-410;1
7327;-414;1
7327;-422;1
7327;-432;1
7327;-402;1
7327;-430;1
7327;-413;1
7376;-436;1
7376;-414;1
7376;-419;1
7376;-388;1
7376;-401;1
7376;-377;1
7376;-387;1
7376;-363;1
7376;-355;1
7376;-330;1
7376;-354;1
7376;-353;1
7376;-371;1
7376;-389;1
7376;-417;1
7376;-410;1
7376;-438;1
7376;-435;1
7376;-461;1
7376;-454;1
7376;-489;1
7376;-447;1
7376;-447;1
7376;-431;1
7376;-411;1
7376;-397;1
7376;-413;1
7376;-394;1
7376;-411;1
7376;-398;1
7376;-401;1
7376;-396;1
7376;-406;1
7376;-386;1
7376;-413;1
7376;-408;1
7376;-427;1
7376;-407;1
7376;-421;1
7376;-396;1
7376;-416;1
7376;-397;1
7376;-404;1
7376;-405;1
7376;-419;1
7376;-403;1
7376;-426;1
7376;-401;1
7431;-408;1
7431;-407;1
7431;-422;1
7431;-401;1
7431;-420;1
7431;-394;1
7431;-407;1
7431;-402;1
7431;-414;1
7431;-397;1
7431;-400;1
7431;-420;1
7431;-387;1
7431;-394;1
7431;-408;1
7431;-387;1
7431;-404;1
7431;-399;1
7431;-376;1
7431;-383;1
7431;-372;1
7431;-357;1
7431;-363;1
7431;-361;1
7431;-339;1
7431;-328;1
7431;-345;1
7431;-329;1
7431;-364;1
7431;-365;1
7431;-383;1
7431;-413;1
7431;-443;1
7431;-436;1
7431;-441;1
7431;-423;1
7431;-394;1
7431;-391;1
7431;-394;1
7431;-367;1
7431;-378;1
7431;-402;1
7431;-388;1
7431;-391;1
7431;-412;1
7431;-400;1
7431;-425;1
7431;-449;1
7431;-435;1
7431;-451;1
7431;-475;1
7431;-459;1
7431;-485;1
7431;-465;1
7483;-465;1
7483;-479;1
7483;-508;1
7483;-491;1
7483;-508;1
7483;-514;1
7483;-526;1
7483;-522;1
7483;-560;1
7483;-560;1
7483;-583;1
7483;-600;1
7483;-621;1
7483;-599;1
7483;-574;1
7483;-513;1
7483;-515;1
7483;-486;1
7483;-464;1
7483;-410;1
7483;-373;1
7483;-338;1
7483;-340;1
7483;-300;1
7483;-276;1
7483;-206;1
7483;-170;1
7483;-124;1
7483;-142;1
7483;-129;1
7483;-167;1
7483;-75;1
7483;-97;1
7483;-156;1
7483;-201;1
7483;-308;1
7483;-267;1
7483;-270;1
7483;-292;1
7483;-229;1
7483;-350;1
7483;-349;1
7483;-380;1
7483;-396;1
7483;-431;1
7483;-421;1
7483;-454;1
7483;-463;1
7483;-485;1
7483;-496;1
7483;-504;1
7483;-546;1
7483;-488;1
7483;-484;1
7533;-453;1
7533;-384;1
7533;-464;1
7533;-430;1
7533;-448;1
7533;-422;1
7533;-423;1
7533;-407;1
7533;-412;1
7533;-406;1
7533;-438;1
7533;-427;1
7533;-464;1
7533;-518;1
7533;-490;1
7533;-469;1
7533;-477;1
7533;-394;1
7533;-485;1
7533;-489;1
7533;-506;1
7533;-492;1
7533;-509;1
7533;-484;1
7533;-498;1
7533;-498;1
7533;-501;1
7533;-469;1
7533;-487;1
7533;-548;1
7533;-502;1
7533;-470;1
7533;-502;1
7533;-414;1
7533;-475;1
7533;-469;1
7533;-462;1
7533;-457;1
7533;-478;1
7533;-465;1
7533;-462;1
7533;-460;1
7533;-456;1
7533;-458;1
7533;-471;1
7533;-522;1
7533;-481;1
7533;-490;1
7588;-472;1
7588;-420;1
7588;-499;1
7588;-478;1
7588;-473;1
7588;-475;1
7588;-457;1
7588;-462;1
7588;-464;1
7588;-442;1
7588;-472;1
7588;-459;1
7588;-594;1
7588;-583;1
7588;-577;1
7588;-545;1
7588;-548;1
7588;-522;1
7588;-519;1
7588;-524;1
7588;-540;1
7588;-519;1
7588;-535;1
7588;-521;1
7588;-524;1
7588;-534;1
7588;-553;1
7588;-516;1
7588;-526;1
7588;-516;1
7588;-504;1
7588;-507;1
7588;-508;1
7588;-525;1
7588;-530;1
7588;-542;1
7588;-524;1
7588;-531;1
7588;-554;1
7588;-532;1
7588;-555;1
7588;-530;1
7588;-537;1
7588;-524;1
7588;-539;1
7588;-521;1
7588;-531;1
7588;-507;1
7643;-508;1
7643;-511;1
7643;-520;1
7643;-497;1
7643;-507;1
7643;-513;1
7643;-491;1
7643;-498;1
7643;-506;1
7643;-488;1
7643;-501;1
7643;-494;1
7643;-518;1
7643;-525;1
7643;-547;1
7643;-529;1
7643;-534;1
7643;-531;1
7643;-539;1
7643;-516;1
7643;-527;1
7643;-507;1
7643;-509;1
7643;-511;1
7643;-508;1
7643;-489;1
7643;-503;1
7643;-490;1
7643;-481;1
7643;-492;1
7643;-484;1
7643;-497;1
7643;-521;1
7643;-503;1
7643;-528;1
7643;-540;1
7643;-532;1
7643;-528;1
7643;-546;1
7643;-535;1
7643;-553;1
7643;-530;1
7643;-529;1
7643;-531;1
7643;-535;1
7643;-511;1
7643;-526;1
7643;-532;1
7643;-511;1
7643;-517;1
7643;-539;1
7643;-529;1
7643;-557;1
7643;-539;1
7701;-542;1
7701;-549;1
7701;-546;1
7701;-508;1
7701;-518;1
7701;-532;1
7701;-507;1
7701;-514;1
7701;-504;1
7701;-510;1
7701;-513;1
7701;-522;1
7701;-525;1
7701;-541;1
7701;-561;1
7701;-556;1
7701;-559;1
7701;-579;1
7701;-559;1
7701;-543;1
7701;-564;1
7701;-546;1
7701;-559;1
7701;-538;1
7701;-545;1
7701;-550;1
7701;-554;1
7701;-526;1
7701;-543;1
7701;-515;1
7701;-528;1
7701;-511;1
7701;-531;1
7701;-513;1
7701;-536;1
7701;-516;1
7701;-538;1
7701;-547;1
7701;-566;1
7701;-534;1
7701;-545;1
7701;-530;1
7701;-530;1
7701;-538;1
7701;-554;1
7701;-532;1
7701;-549;1
7701;-543;1
7701;-557;1
7701;-553;1
7701;-589;1
7701;-572;1
7701;-581;1
7701;-593;1
7701;-587;1
7701;-584;1
7701;-600;1
7701;-580;1
7701;-573;1
7701;-574;1
7752;-566;1
7752;-564;1
7752;-578;1
7752;-552;1
7752;-566;1
7752;-548;1
7752;-562;1
7752;-543;1
7752;-556;1
7752;-527;1
7752;-534;1
7752;-545;1
7752;-526;1
7752;-534;1
7752;-547;1
7752;-527;1
7752;-541;1
7752;-516;1
7752;-506;1
7752;-499;1
7752;-514;1
7752;-482;1
7752;-498;1
7752;-475;1
7752;-476;1
7752;-472;1
7752;-485;1
7752;-458;1
7752;-476;1
7752;-455;1
7752;-464;1
7752;-444;1
7752;-464;1
7752;-441;1
7752;-472;1
7752;-466;1
7752;-461;1
7752;-453;1
7752;-457;1
7752;-435;1
7752;-443;1
7752;-452;1
7752;-438;1
7752;-430;1
7752;-445;1
7752;-430;1
7752;-457;1
7752;-446;1
7805;-467;1
7805;-450;1
7805;-458;1
7805;-435;1
7805;-432;1
7805;-440;1
7805;-417;1
7805;-412;1
7805;-427;1
7805;-410;1
7805;-442;1
7805;-436;1
7805;-467;1
7805;-459;1
7805;-500;1
7805;-489;1
7805;-506;1
7805;-491;1
7805;-502;1
7805;-495;1
7805;-491;1
7805;-468;1
7805;-464;1
7805;-472;1
7805;-456;1
7805;-482;1
7805;-462;1
7805;-474;1
7805;-469;1
7805;-461;1
7805;-460;1
7805;-457;1
7805;-464;1
7805;-457;1
7805;-454;1
7805;-458;1
7805;-458;1
7805;-462;1
7805;-486;1
7805;-463;1
7805;-474;1
7805;-484;1
7805;-464;1
7805;-463;1
7805;-479;1
7805;-460;1
7805;-483;1
7805;-463;1
7805;-475;1
7805;-458;1
7805;-473;1
7805;-453;1
7805;-466;1
7805;-451;1
7861;-454;1
7861;-454;1
7861;-464;1
7861;-443;1
7861;-458;1
7861;-430;1
7861;-449;1
7861;-429;1
7861;-449;1
7861;-436;1
7861;-459;1
7861;-439;1
7861;-458;1
7861;-453;1
7861;-473;1
7861;-458;1
7861;-486;1
7861;-482;1
7861;-478;1
7861;-470;1
7861;-466;1
7861;-451;1
7861;-462;1
7861;-479;1
7861;-479;1
7861;-481;1
7861;-491;1
7861;-459;1
7861;-489;1
7861;-480;1
7861;-502;1
7861;-481;1
7861;-488;1
7861;-456;1
7861;-469;1
7861;-448;1
7861;-466;1
7861;-449;1
7861;-475;1
7861;-467;1
7861;-481;1
7861;-470;1
7861;-483;1
7861;-492;1
7861;-514;1
7861;-485;1
7861;-497;1
7861;-485;1
7861;-491;1
7861;-497;1
7861;-511;1
7861;-504;1
7861;-519;1
7861;-499;1
7912;-513;1
7912;-492;1
7912;-499;1
7912;-482;1
7912;-482;1
7912;-482;1
7912;-476;1
7912;-471;1
7912;-489;1
7912;-468;1
7912;-493;1
7912;-473;1
7912;-481;1
7912;-476;1
7912;-491;1
7912;-477;1
7912;-491;1
7912;-508;1
7912;-483;1
7912;-492;1
7912;-507;1
7912;-478;1
7912;-479;1
7912;-502;1
7912;-482;1
7912;-486;1
7912;-501;1
7912;-471;1
7912;-485;1
7912;-466;1
7912;-474;1
7912;-469;1
7912;-478;1
7912;-473;1
7912;-496;1
7912;-485;1
7912;-494;1
7912;-492;1
7912;-501;1
7912;-481;1
7912;-482;1
7912;-487;1
7912;-459;1
7912;-486;1
7912;-472;1
7912;-489;1
7912;-485;1
7912;-479;1
7965;-481;1
7965;-495;1
7965;-525;1
7965;-502;1
7965;-505;1
7965;-517;1
7965;-513;1
7965;-526;1
7965;-557;1
7965;-511;1
7965;-517;1
7965;-491;1
7965;-494;1
7965;-496;1
7965;-512;1
7965;-491;1
7965;-511;1
7965;-493;1
7965;-502;1
7965;-510;1
7965;-523;1
7965;-490;1
7965;-506;1
7965;-487;1
7965;-498;1
7965;-510;1
7965;-530;1
7965;-516;1
7965;-519;1
7965;-498;1
7965;-507;1
7965;-514;1
7965;-529;1
7965;-510;1
7965;-518;1
7965;-529;1
7965;-508;1
7965;-512;1
7965;-500;1
7965;-513;1
7965;-507;1
7965;-494;1
7965;-508;1
7965;-508;1
7965;-516;1
7965;-505;1
7965;-532;1
7965;-519;1
7965;-537;1
7965;-528;1
7965;-532;1
7965;-515;1
7965;-531;1
7965;-538;1
8019;-515;1
8019;-517;1
8019;-522;1
8019;-504;1
8019;-509;1
8019;-518;1
8019;-494;1
8019;-508;1
8019;-518;1
8019;-493;1
8019;-513;1
8019;-537;1
8019;-508;1
8019;-516;1
8019;-537;1
8019;-507;1
8019;-524;1
8019;-507;1
8019;-525;1
8019;-509;1
8019;-526;1
8019;-501;1
8019;-519;1
8019;-530;1
8019;-543;1
8019;-527;1
8019;-549;1
8019;-525;1
8019;-524;1
8019;-532;1
8019;-536;1
8019;-519;1
8019;-532;1
8019;-503;1
8019;-521;1
8019;-511;1
8019;-529;1
8019;-515;1
8019;-532;1
8019;-516;1
8019;-519;1
8019;-541;1
8019;-525;1
8019;-530;1
8019;-539;1
8019;-529;1
8019;-549;1
8019;-523;1
8019;-532;1
8019;-534;1
8019;-555;1
8019;-529;1
8019;-532;1
8019;-530;1
8069;-513;1
8069;-523;1
8069;-538;1
8069;-514;1
8069;-531;1
8069;-513;1
8069;-528;1
8069;-510;1
8069;-522;1
8069;-498;1
8069;-524;1
8069;-493;1
8069;-499;1
8069;-496;1
8069;-521;1
8069;-500;1
8069;-508;1
8069;-519;1
8069;-521;1
8069;-511;1
8069;-522;1
8069;-501;1
8069;-515;1
8069;-506;1
8069;-516;1
8069;-529;1
8069;-564;1
8069;-545;1
8069;-554;1
8069;-538;1
8069;-530;1
8069;-524;1
8069;-535;1
8069;-515;1
8069;-546;1
8069;-535;1
8069;-534;1
8069;-536;1
8069;-550;1
8069;-523;1
8069;-515;1
8069;-511;1
8069;-483;1
8069;-484;1
8069;-494;1
8069;-466;1
8069;-490;1
8069;-477;1
8121;-512;1
8121;-508;1
8121;-537;1
8121;-525;1
8121;-535;1
8121;-548;1
8121;-533;1
8121;-539;1
8121;-526;1
8121;-526;1
8121;-538;1
8121;-536;1
8121;-541;1
8121;-536;1
8121;-546;1
8121;-531;1
8121;-543;1
8121;-526;1
8121;-523;1
8121;-524;1
8121;-537;1
8121;-510;1
8121;-521;1
8121;-502;1
8121;-509;1
8121;-514;1
8121;-537;1
8121;-519;1
8121;-532;1
8121;-512;1
8121;-533;1
8121;-502;1
8121;-523;1
8121;-502;1
8121;-518;1
8121;-503;1
8121;-511;1
8121;-487;1
8121;-510;1
8121;-490;1
8121;-499;1
8121;-488;1
8121;-479;1
8121;-481;1
8121;-495;1
8121;-480;1
8121;-498;1
8121;-504;1
8121;-480;1
8121;-499;1
8121;-495;1
8121;-488;1
8121;-493;1
8121;-486;1
8177;-498;1
8177;-489;1
8177;-501;1
8177;-476;1
8177;-498;1
8177;-484;1
8177;-482;1
8177;-466;1
8177;-480;1
8177;-466;1
8177;-481;1
8177;-500;1
8177;-469;1
8177;-479;1
8177;-490;1
8177;-461;1
8177;-471;1
8177;-462;1
8177;-467;1
8177;-478;1
8177;-495;1
8177;-463;1
8177;-469;1
8177;-476;1
8177;-463;1
8177;-482;1
8177;-486;1
8177;-482;1
8177;-499;1
8177;-508;1
8177;-519;1
8177;-495;1
8177;-515;1
8177;-493;1
8177;-510;1
8177;-499;1
8177;-511;1
8177;-504;1
8177;-514;1
8177;-499;1
8177;-492;1
8177;-487;1
8177;-490;1
8177;-488;1
8177;-494;1
8177;-464;1
8177;-465;1
8177;-480;1
8227;-459;1
8227;-471;1
8227;-496;1
8227;-471;1
8227;-505;1
8227;-487;1
8227;-497;1
8227;-498;1
8227;-520;1
8227;-501;1
8227;-503;1
8227;-520;1
8227;-485;1
8227;-489;1
8227;-496;1
8227;-477;1
8227;-489;1
8227;-493;1
8227;-462;1
8227;-472;1
8227;-481;1
8227;-463;1
8227;-488;1
8227;-462;1
8227;-487;1
8227;-476;1
8227;-502;1
8227;-504;1
8227;-514;1
8227;-498;1
8227;-503;1
8227;-491;1
8227;-515;1
8227;-500;1
8227;-528;1
8227;-520;1
8227;-520;1
8227;-493;1
8227;-510;1
8227;-501;1
8227;-516;1
8227;-537;1
8227;-529;1
8227;-526;1
8227;-543;1
8227;-519;1
8227;-539;1
8227;-513;1
8227;-531;1
8227;-514;1
8227;-531;1
8227;-504;1
8227;-525;1
8227;-503;1
8284;-507;1
8284;-507;1
8284;-519;1
8284;-492;1
8284;-518;1
8284;-534;1
8284;-509;1
8284;-527;1
8284;-531;1
8284;-507;1
8284;-518;1
8284;-530;1
8284;-512;1
8284;-528;1
8284;-505;1
8284;-512;1
8284;-525;1
8284;-513;1
8284;-514;1
8284;-499;1
8284;-522;1
8284;-507;1
8284;-512;1
8284;-505;1
8284;-514;1
8284;-519;1
8284;-536;1
8284;-507;1
8284;-520;1
8284;-538;1
8284;-526;1
8284;-523;1
8284;-540;1
8284;-517;1
8284;-522;1
8284;-536;1
8284;-503;1
8284;-508;1
8284;-526;1
8284;-498;1
8284;-499;1
8284;-511;1
8284;-490;1
8284;-505;1
8284;-530;1
8284;-517;1
8284;-541;1
8284;-544;1
8335;-526;1
8335;-544;1
8335;-556;1
8335;-536;1
8335;-549;1
8335;-518;1
8335;-534;1
8335;-508;1
8335;-519;1
8335;-505;1
8335;-518;1
8335;-507;1
8335;-494;1
8335;-487;1
8335;-477;1
8335;-494;1
8335;-501;1
8335;-520;1
8335;-520;1
8335;-518;1
8335;-535;1
8335;-536;1
8335;-551;1
8335;-555;1
8335;-577;1
8335;-609;1
8335;-640;1
8335;-639;1
8335;-679;1
8335;-657;1
8335;-686;1
8335;-674;1
8335;-709;1
8335;-671;1
8335;-712;1
8335;-702;1
8335;-707;1
8335;-658;1
8335;-638;1
8335;-593;1
8335;-586;1
8335;-563;1
8335;-501;1
8335;-469;1
8335;-463;1
8335;-423;1
8335;-413;1
8335;-366;1
8335;-327;1
8335;-251;1
8335;-245;1
8335;-239;1
8335;-263;1
8335;-289;1
8395;-320;1
8395;-346;1
8395;-386;1
8395;-381;1
8395;-400;1
8395;-415;1
8395;-416;1
8395;-428;1
8395;-456;1
8395;-456;1
8395;-502;1
8395;-504;1
8395;-522;1
8395;-536;1
8395;-558;1
8395;-539;1
8395;-569;1
8395;-554;1
8395;-562;1
8395;-536;1
8395;-551;1
8395;-528;1
8395;-535;1
8395;-537;1
8395;-513;1
8395;-518;1
8395;-531;1
8395;-509;1
8395;-521;1
8395;-511;1
8395;-528;1
8395;-517;1
8395;-542;1
8395;-534;1
8395;-552;1
8395;-522;1
8395;-544;1
8395;-513;1
8395;-526;1
8395;-515;1
8395;-534;1
8395;-534;1
8395;-523;1
8395;-520;1
8395;-528;1
8395;-505;1
8395;-521;1
8395;-531;1
8395;-527;1
8395;-524;1
8395;-531;1
8395;-509;1
8395;-532;1
8395;-515;1
8395;-510;1
8395;-517;1
8395;-533;1
8395;-499;1
8395;-524;1
8395;-511;1
8446;-537;1
8446;-512;1
8446;-532;1
8446;-524;1
8446;-529;1
8446;-537;1
8446;-511;1
8446;-518;1
8446;-527;1
8446;-505;1
8446;-513;1
8446;-521;1
8446;-505;1
8446;-517;1
8446;-524;1
8446;-505;1
8446;-514;1
8446;-511;1
8446;-492;1
8446;-506;1
8446;-521;1
8446;-502;1
8446;-508;1
8446;-505;1
8446;-501;1
8446;-497;1
8446;-519;1
8446;-497;1
8446;-519;1
8446;-509;1
8446;-518;1
8446;-499;1
8446;-501;1
8446;-484;1
8446;-509;1
8446;-487;1
8446;-499;1
8446;-496;1
8446;-517;1
8446;-491;1
8446;-522;1
8446;-497;1
8446;-517;1
8446;-504;1
8446;-524;1
8446;-509;1
8446;-538;1
8446;-519;1
8502;-536;1
8502;-541;1
8502;-545;1
8502;-526;1
8502;-540;1
8502;-525;1
8502;-532;1
8502;-536;1
8502;-528;1
8502;-510;1
8502;-526;1
8502;-510;1
8502;-537;1
8502;-509;1
8502;-536;1
8502;-512;1
8502;-523;1
8502;-535;1
8502;-523;1
8502;-520;1
8502;-538;1
8502;-511;1
8502;-522;1
8502;-532;1
8502;-521;1
8502;-522;1
8502;-532;1
8502;-500;1
8502;-518;1
8502;-501;1
8502;-528;1
8502;-507;1
8502;-515;1
8502;-492;1
8502;-517;1
8502;-499;1
8502;-519;1
8502;-505;1
8502;-526;1
8502;-508;1
8502;-543;1
8502;-526;1
8502;-553;1
8502;-567;1
8502;-573;1
8502;-543;1
8502;-538;1
8502;-549;1
8502;-527;1
8502;-541;1
8502;-553;1
8502;-527;1
8502;-550;1
8502;-539;1
8502;-550;1
8502;-529;1
8502;-558;1
8502;-545;1
8502;-542;1
8502;-543;1
8554;-560;1
8554;-560;1
8554;-577;1
8554;-549;1
8554;-570;1
8554;-563;1
8554;-565;1
8554;-552;1
8554;-568;1
8554;-552;1
8554;-575;1
8554;-563;1
8554;-576;1
8554;-561;1
8554;-576;1
8554;-557;1
8554;-585;1
8554;-548;1
8554;-556;1
8554;-568;1
8554;-575;1
8554;-556;1
8554;-565;1
8554;-538;1
8554;-550;1
8554;-556;1
8554;-564;1
8554;-547;1
8554;-551;1
8554;-573;1
8554;-560;1
8554;-557;1
8554;-573;1
8554;-559;1
8554;-579;1
8554;-581;1
8554;-597;1
8554;-574;1
8554;-591;1
8554;-577;1
8554;-579;1
8554;-587;1
8554;-580;1
8554;-569;1
8554;-586;1
8554;-587;1
8554;-574;1
8554;-579;1
8608;-561;1
8608;-564;1
8608;-571;1
8608;-543;1
8608;-540;1
8608;-550;1
8608;-531;1
8608;-548;1
8608;-552;1
8608;-528;1
8608;-541;1
8608;-511;1
8608;-537;1
8608;-521;1
8608;-560;1
8608;-566;1
8608;-580;1
8608;-615;1
8608;-613;1
8608;-621;1
8608;-624;1
8608;-603;1
8608;-594;1
8608;-596;1
8608;-563;1
8608;-565;1
8608;-566;1
8608;-545;1
8608;-546;1
8608;-546;1
8608;-523;1
8608;-518;1
8608;-488;1
8608;-503;1
8608;-500;1
8608;-519;1
8608;-502;1
8608;-502;1
8608;-531;1
8608;-515;1
8608;-544;1
8608;-529;1
8608;-526;1
8608;-507;1
8608;-509;1
8608;-484;1
8608;-499;1
8608;-481;1
8661;-511;1
8661;-499;1
8661;-514;1
8661;-487;1
8661;-492;1
8661;-500;1
8661;-477;1
8661;-464;1
8661;-470;1
8661;-451;1
8661;-482;1
8661;-471;1
8661;-479;1
8661;-488;1
8661;-495;1
8661;-476;1
8661;-488;1
8661;-512;1
8661;-486;1
8661;-503;1
8661;-511;1
8661;-490;1
8661;-500;1
8661;-479;1
8661;-486;1
8661;-499;1
8661;-501;1
8661;-462;1
8661;-479;1
8661;-458;1
8661;-455;1
8661;-439;1
8661;-442;1
8661;-431;1
8661;-461;1
8661;-466;1
8661;-486;1
8661;-528;1
8661;-560;1
8661;-551;1
8661;-567;1
8661;-547;1
8661;-561;1
8661;-550;1
8661;-556;1
8661;-528;1
8661;-534;1
8661;-534;1
8661;-512;1
8661;-518;1
8661;-532;1
8661;-511;1
8661;-508;1
8661;-522;1
8712;-513;1
8712;-531;1
8712;-555;1
8712;-533;1
8712;-537;1
8712;-543;1
8712;-514;1
8712;-517;1
8712;-521;1
8712;-496;1
8712;-519;1
8712;-502;1
8712;-502;1
8712;-514;1
8712;-519;1
8712;-498;1
8712;-513;1
8712;-525;1
8712;-519;1
8712;-515;1
8712;-536;1
8712;-513;1
8712;-520;1
8712;-519;1
8712;-510;1
8712;-512;1
8712;-523;1
8712;-497;1
8712;-527;1
8712;-511;1
8712;-516;1
8712;-510;1
8712;-517;1
8712;-494;1
8712;-499;1
8712;-511;1
8712;-505;1
8712;-519;1
8712;-521;1
8712;-505;1
8712;-518;1
8712;-495;1
8712;-515;1
8712;-491;1
8712;-500;1
8712;-462;1
8712;-465;1
8712;-482;1
8767;-461;1
8767;-475;1
8767;-506;1
8767;-505;1
8767;-513;1
8767;-537;1
8767;-529;1
8767;-545;1
8767;-541;1
8767;-532;1
8767;-536;1
8767;-525;1
8767;-529;1
8767;-527;1
8767;-518;1
8767;-499;1
8767;-508;1
8767;-528;1
8767;-515;1
8767;-522;1
8767;-528;1
8767;-503;1
8767;-518;1
8767;-484;1
8767;-503;1
8767;-487;1
8767;-507;1
8767;-488;1
8767;-493;1
8767;-504;1
8767;-479;1
8767;-485;1
8767;-507;1
8767;-492;1
8767;-505;1
8767;-483;1
8767;-492;1
8767;-496;1
8767;-512;1
8767;-487;1
8767;-489;1
8767;-512;1
8767;-478;1
8767;-479;1
8767;-477;1
8767;-466;1
8767;-478;1
8767;-493;1
8767;-478;1
8767;-500;1
8767;-494;1
8767;-499;1
8767;-518;1
8767;-510;1
8767;-501;1
8767;-491;1
8767;-491;1
8767;-467;1
8767;-492;1
8767;-469;1
8823;-484;1
8823;-470;1
8823;-491;1
8823;-476;1
8823;-507;1
8823;-505;1
8823;-523;1
8823;-507;1
8823;-537;1
8823;-523;1
8823;-536;1
8823;-552;1
8823;-540;1
8823;-532;1
8823;-541;1
8823;-523;1
8823;-530;1
8823;-503;1
8823;-523;1
8823;-504;1
8823;-520;1
8823;-504;1
8823;-523;1
8823;-483;1
8823;-484;1
8823;-493;1
8823;-514;1
8823;-497;1
8823;-517;1
8823;-497;1
8823;-520;1
8823;-501;1
8823;-517;1
8823;-498;1
8823;-496;1
8823;-504;1
8823;-498;1
8823;-496;1
8823;-503;1
8823;-487;1
8823;-507;1
8823;-487;1
8823;-466;1
8823;-466;1
8823;-487;1
8823;-465;1
8823;-487;1
8823;-458;1
8874;-471;1
8874;-481;1
8874;-500;1
8874;-497;1
8874;-522;1
8874;-499;1
8874;-521;1
8874;-506;1
8874;-528;1
8874;-493;1
8874;-499;1
8874;-459;1
8874;-470;1
8874;-437;1
8874;-481;1
8874;-480;1
8874;-489;1
8874;-518;1
8874;-513;1
8874;-529;1
8874;-544;1
8874;-531;1
8874;-552;1
8874;-547;1
8874;-544;1
8874;-529;1
8874;-539;1
8874;-520;1
8874;-523;1
8874;-517;1
8874;-505;1
8874;-501;1
8874;-516;1
8874;-493;1
8874;-500;1
8874;-510;1
8874;-503;1
8874;-504;1
8874;-523;1
8874;-496;1
8874;-521;1
8874;-500;1
8874;-498;1
8874;-506;1
8874;-527;1
8874;-506;1
8874;-520;1
8874;-489;1
8930;-500;1
8930;-505;1
8930;-518;1
8930;-497;1
8930;-506;1
8930;-486;1
8930;-505;1
8930;-478;1
8930;-503;1
8930;-479;1
8930;-484;1
8930;-492;1
8930;-515;1
8930;-494;1
8930;-515;1
8930;-494;1
8930;-507;1
8930;-522;1
8930;-492;1
8930;-514;1
8930;-504;1
8930;-485;1
8930;-489;1
8930;-495;1
8930;-477;1
8930;-474;1
8930;-497;1
8930;-483;1
8930;-496;1
8930;-515;1
8930;-508;1
8930;-515;1
8930;-531;1
8930;-521;1
8930;-542;1
8930;-512;1
8930;-461;1
8930;-461;1
8930;-461;1
8930;-461;1
8930;-461;1
8930;-461;1
8930;-461;1
8930;-461;1
8930;-461;1
8930;-461;1
8930;-461;1
8930;-461;1
8930;-461;1
8930;-464;1
8930;-469;1
8930;-435;1
8930;-454;1
8930;-449;1
8930;-455;1
8930;-459;1
8930;-462;1
8930;-450;1
8930;-478;1
8930;-463;1
8930;-481;1
8930;-446;1
8930;-456;1
8930;-441;1
8930;-478;1
8930;-485;1
8980;-472;1
8980;-475;1
8980;-486;1
8980;-516;1
8980;-524;1
8980;-521;1
8980;-521;1
8980;-524;1
8980;-542;1
8980;-517;1
8980;-539;1
8980;-523;1
8980;-534;1
8980;-521;1
8980;-533;1
8980;-505;1
8980;-501;1
8980;-505;1
8980;-487;1
8980;-496;1
8980;-505;1
8980;-479;1
8980;-492;1
8980;-470;1
8980;-488;1
8980;-458;1
8980;-480;1
8980;-449;1
8980;-458;1
8980;-471;1
8980;-460;1
8980;-470;1
8980;-480;1
8980;-457;1
8980;-472;1
8980;-458;1
8980;-477;1
8980;-472;1
8980;-491;1
8980;-471;1
8980;-484;1
8980;-480;1
8980;-473;1
8980;-477;1
8980;-465;1
8980;-468;1
8980;-487;1
8980;-477;1
9033;-478;1
9033;-474;1
9033;-484;1
9033;-456;1
9033;-477;1
9033;-463;1
9033;-489;1
9033;-468;1
9033;-485;1
9033;-474;1
9033;-485;1
9033;-489;1
9033;-467;1
9033;-466;1
9033;-480;1
9033;-470;1
9033;-479;1
9033;-464;1
9033;-481;1
9033;-460;1
9033;-481;1
9033;-464;1
9033;-479;1
9033;-470;1
9033;-480;1
9033;-480;1
9033;-492;1
9033;-471;1
9033;-495;1
9033;-466;1
9033;-485;1
9033;-469;1
9033;-482;1
9033;-465;1
9033;-472;1
9033;-470;1
9033;-455;1
9033;-460;1
9033;-445;1
9033;-461;1
9033;-457;1
9033;-457;1
9033;-452;1
9033;-455;1
9033;-476;1
9033;-461;1
9033;-482;1
9033;-463;1
9088;-489;1
9088;-474;1
9088;-485;1
9088;-463;1
9088;-465;1
9088;-476;1
9088;-457;1
9088;-460;1
9088;-475;1
9088;-457;1
9088;-472;1
9088;-451;1
9088;-479;1
9088;-451;1
9088;-477;1
9088;-457;1
9088;-463;1
9088;-472;1
9088;-451;1
9088;-461;1
9088;-481;1
9088;-458;1
9088;-471;1
9088;-490;1
9088;-463;1
9088;-483;1
9088;-455;1
9088;-458;1
9088;-484;1
9088;-466;1
9088;-477;1
9088;-469;1
9088;-486;1
9088;-460;1
9088;-468;1
9088;-478;1
9088;-464;1
9088;-469;1
9088;-486;1
9088;-458;1
9088;-473;1
9088;-490;1
9088;-472;1
9088;-466;1
9088;-485;1
9088;-466;1
9088;-475;1
9088;-466;1
9088;-475;1
9088;-475;1
9088;-491;1
9088;-472;1
9088;-491;1
9088;-472;1
9088;-480;1
9088;-489;1
9088;-497;1
9088;-480;1
9088;-492;1
9088;-496;1
9143;-481;1
9143;-484;1
9143;-503;1
9143;-485;1
9143;-491;1
9143;-492;1
9143;-475;1
9143;-496;1
9143;-467;1
9143;-484;1
9143;-474;1
9143;-479;1
9143;-476;1
9143;-494;1
9143;-496;1
9143;-479;1
9143;-485;1
9143;-492;1
9143;-473;1
9143;-475;1
9143;-491;1
9143;-469;1
9143;-491;1
9143;-477;1
9143;-478;1
9143;-476;1
9143;-492;1
9143;-476;1
9143;-488;1
9143;-472;1
9143;-485;1
9143;-493;1
9143;-517;1
9143;-495;1
9143;-519;1
9143;-505;1
9143;-518;1
9143;-517;1
9143;-525;1
9143;-512;1
9143;-524;1
9143;-537;1
9143;-508;1
9143;-509;1
9143;-514;1
9143;-499;1
9143;-508;1
9143;-503;1
9143;-510;1
9143;-492;1
9143;-511;1
9143;-490;1
9143;-503;1
9143;-509;1
9195;-501;1
9195;-479;1
9195;-497;1
9195;-481;1
9195;-495;1
9195;-511;1
9195;-498;1
9195;-494;1
9195;-506;1
9195;-487;1
9195;-491;1
9195;-480;1
9195;-499;1
9195;-482;1
9195;-497;1
9195;-481;1
9195;-484;1
9195;-492;1
9195;-465;1
9195;-473;1
9195;-484;1
9195;-463;1
9195;-470;1
9195;-474;1
9195;-451;1
9195;-456;1
9195;-469;1
9195;-454;1
9195;-472;1
9195;-451;1
9195;-461;1
9195;-443;1
9195;-466;1
9195;-446;1
9195;-459;1
9195;-476;1
9195;-453;1
9195;-487;1
9195;-488;1
9195;-498;1
9195;-497;1
9195;-510;1
9195;-513;1
9195;-506;1
9195;-526;1
9195;-506;1
9195;-514;1
9195;-521;1
9247;-507;1
9247;-512;1
9247;-525;1
9247;-510;1
9247;-523;1
9247;-504;1
9247;-514;1
9247;-498;1
9247;-514;1
9247;-496;1
9247;-518;1
9247;-506;1
9247;-504;1
9247;-508;1
9247;-532;1
9247;-505;1
9247;-513;1
9247;-482;1
9247;-500;1
9247;-478;1
9247;-483;1
9247;-462;1
9247;-490;1
9247;-470;1
9247;-483;1
9247;-473;1
9247;-502;1
9247;-484;1
9247;-499;1
9247;-512;1
9247;-539;1
9247;-530;1
9247;-554;1
9247;-556;1
9247;-592;1
9247;-603;1
9247;-610;1
9247;-619;1
9247;-629;1
9247;-620;1
9247;-653;1
9247;-662;1
9247;-685;1
9247;-687;1
9247;-709;1
9247;-668;1
9247;-645;1
9247;-611;1
9303;-578;1
9303;-573;1
9303;-551;1
9303;-483;1
9303;-454;1
9303;-451;1
9303;-435;1
9303;-422;1
9303;-410;1
9303;-339;1
9303;-304;1
9303;-250;1
9303;-262;1
9303;-280;1
9303;-319;1
9303;-330;1
9303;-383;1
9303;-327;1
9303;-260;1
9303;-340;1
9303;-379;1
9303;-377;1
9303;-418;1
9303;-418;1
9303;-466;1
9303;-568;1
9303;-526;1
9303;-515;1
9303;-518;1
9303;-455;1
9303;-532;1
9303;-544;1
9303;-574;1
9303;-575;1
9303;-596;1
9303;-568;1
9303;-568;1
9303;-556;1
9303;-561;1
9303;-551;1
9303;-557;1
9303;-634;1
9303;-554;1
9303;-543;1
9303;-563;1
9303;-479;1
9303;-563;1
9303;-581;1
9303;-559;1
9303;-565;1
9303;-561;1
9303;-539;1
9303;-562;1
9303;-551;1
9303;-560;1
9303;-530;1
9303;-551;1
9303;-603;1
9303;-573;1
9303;-554;1
9356;-575;1
9356;-494;1
9356;-580;1
9356;-557;1
9356;-556;1
9356;-563;1
9356;-534;1
9356;-555;1
9356;-528;1
9356;-538;1
9356;-533;1
9356;-546;1
9356;-554;1
9356;-612;1
9356;-581;1
9356;-555;1
9356;-567;1
9356;-489;1
9356;-576;1
9356;-560;1
9356;-576;1
9356;-564;1
9356;-568;1
9356;-587;1
9356;-563;1
9356;-573;1
9356;-592;1
9356;-579;1
9356;-592;1
9356;-644;1
9356;-612;1
9356;-587;1
9356;-605;1
9356;-512;1
9356;-592;1
9356;-607;1
9356;-692;1
9356;-708;1
9356;-691;1
9356;-659;1
9356;-660;1
9356;-669;1
9356;-638;1
9356;-644;1
9356;-650;1
9356;-618;1
9356;-628;1
9356;-633;1
9356;-610;1
9356;-610;1
9356;-602;1
9356;-595;1
9356;-588;1
9356;-577;1
9431;-564;1
9431;-553;1
9431;-560;1
9431;-546;1
9431;-571;1
9431;-562;1
9431;-573;1
9431;-556;1
9431;-574;1
9431;-559;1
9431;-581;1
9431;-597;1
9431;-574;1
9431;-576;1
9431;-572;1
9431;-544;1
9431;-559;1
9431;-542;1
9431;-554;1
9431;-525;1
9431;-549;1
9431;-529;1
9431;-546;1
9431;-521;1
9431;-538;1
9431;-545;1
9431;-556;1
9431;-539;1
9431;-559;1
9431;-543;1
9431;-551;1
9431;-527;1
9431;-538;1
9431;-505;1
9431;-522;1
9431;-530;1
9431;-513;1
9431;-539;1
9431;-512;1
9431;-517;1
9431;-526;1
9431;-522;1
9431;-539;1
9431;-543;1
9431;-554;1
9431;-537;1
9431;-557;1
9431;-538;1
9461;-551;1
9461;-539;1
9461;-566;1
9461;-538;1
9461;-547;1
9461;-501;1
9461;-526;1
9461;-532;1
9461;-549;1
9461;-520;1
9461;-538;1
9461;-516;1
9461;-538;1
9461;-527;1
9461;-546;1
9461;-522;1
9461;-538;1
9461;-560;1
9461;-539;1
9461;-562;1
9461;-574;1
9461;-547;1
9461;-557;1
9461;-572;1
9461;-546;1
9461;-538;1
9461;-557;1
9461;-535;1
9461;-546;1
9461;-551;1
9461;-557;1
9461;-533;1
9461;-565;1
9461;-548;1
9461;-561;1
9461;-570;1
9461;-574;1
9461;-557;1
9461;-565;1
9461;-538;1
9461;-558;1
9461;-546;1
9461;-549;1
9461;-556;1
9461;-566;1
9461;-551;1
9461;-575;1
9461;-572;1
9513;-585;1
9513;-562;1
9513;-587;1
9513;-572;1
9513;-583;1
9513;-594;1
9513;-569;1
9513;-581;1
9513;-603;1
9513;-587;1
9513;-600;1
9513;-610;1
9513;-588;1
9513;-600;1
9513;-619;1
9513;-608;1
9513;-610;1
9513;-588;1
9513;-608;1
9513;-595;1
9513;-618;1
9513;-592;1
9513;-601;1
9513;-621;1
9513;-632;1
9513;-609;1
9513;-625;1
9513;-613;1
9513;-616;1
9513;-620;1
9513;-622;1
9513;-618;1
9513;-636;1
9513;-616;1
9513;-639;1
9513;-624;1
9513;-626;1
9513;-635;1
9513;-658;1
9513;-638;1
9513;-654;1
9513;-634;1
9513;-646;1
9513;-624;1
9513;-640;1
9513;-619;1
9513;-642;1
9513;-611;1
9513;-626;1
9513;-606;1
9513;-629;1
9513;-598;1
9513;-605;1
9513;-576;1
9569;-601;1
9569;-569;1
9569;-584;1
9569;-578;1
9569;-601;1
9569;-564;1
9569;-586;1
9569;-567;1
9569;-578;1
9569;-554;1
9569;-564;1
9569;-539;1
9569;-571;1
9569;-551;1
9569;-573;1
9569;-557;1
9569;-567;1
9569;-575;1
9569;-570;1
9569;-567;1
9569;-575;1
9569;-554;1
9569;-559;1
9569;-578;1
9569;-566;1
9569;-569;1
9569;-586;1
9569;-560;1
9569;-576;1
9569;-553;1
9569;-556;1
9569;-545;1
9569;-570;1
9569;-560;1
9569;-603;1
9569;-578;1
9569;-582;1
9569;-573;1
9569;-570;1
9569;-554;1
9569;-556;1
9569;-571;1
9569;-557;1
9569;-564;1
9569;-572;1
9569;-544;1
9569;-564;1
9569;-558;1
9569;-578;1
9569;-567;1
9569;-583;1
9569;-561;1
9569;-561;1
9569;-572;1
9621;-557;1
9621;-557;1
9621;-543;1
9621;-547;1
9621;-553;1
9621;-549;1
9621;-541;1
9621;-541;1
9621;-567;1
9621;-542;1
9621;-545;1
9621;-567;1
9621;-562;1
9621;-567;1
9621;-590;1
9621;-562;1
9621;-576;1
9621;-570;1
9621;-577;1
9621;-579;1
9621;-597;1
9621;-576;1
9621;-604;1
9621;-574;1
9621;-588;1
9621;-559;1
9621;-578;1
9621;-558;1
9621;-581;1
9621;-554;1
9621;-571;1
9621;-547;1
9621;-559;1
9621;-542;1
9621;-552;1
9621;-526;1
9621;-541;1
9621;-548;1
9621;-564;1
9621;-544;1
9621;-550;1
9621;-563;1
9621;-560;1
9621;-561;1
9621;-547;1
9621;-555;1
9621;-566;1
9621;-564;1
9621;-571;1
9621;-559;1
9621;-565;1
9621;-551;1
9621;-560;1
9621;-577;1
9674;-564;1
9674;-564;1
9674;-586;1
9674;-561;1
9674;-564;1
9674;-582;1
9674;-562;1
9674;-564;1
9674;-578;1
9674;-556;1
9674;-566;1
9674;-541;1
9674;-554;1
9674;-574;1
9674;-579;1
9674;-554;1
9674;-578;1
9674;-563;1
9674;-568;1
9674;-573;1
9674;-571;1
9674;-535;1
9674;-539;1
9674;-541;1
9674;-523;1
9674;-529;1
9674;-537;1
9674;-514;1
9674;-519;1
9674;-539;1
9674;-524;1
9674;-531;1
9674;-558;1
9674;-536;1
9674;-539;1
9674;-557;1
9674;-562;1
9674;-555;1
9674;-581;1
9674;-552;1
9674;-554;1
9674;-576;1
9674;-555;1
9674;-560;1
9674;-579;1
9674;-549;1
9674;-564;1
9674;-544;1
9728;-549;1
9728;-552;1
9728;-556;1
9728;-540;1
9728;-568;1
9728;-557;1
9728;-570;1
9728;-561;1
9728;-580;1
9728;-562;1
9728;-580;1
9728;-550;1
9728;-574;1
9728;-548;1
9728;-567;1
9728;-544;1
9728;-560;1
9728;-538;1
9728;-560;1
9728;-539;1
9728;-560;1
9728;-530;1
9728;-547;1
9728;-552;1
9728;-538;1
9728;-549;1
9728;-541;1
9728;-548;1
9728;-544;1
9728;-545;1
9728;-534;1
9728;-542;1
9728;-565;1
9728;-545;1
9728;-578;1
9728;-572;1
9728;-565;1
9728;-557;1
9728;-574;1
9728;-553;1
9728;-562;1
9728;-540;1
9728;-565;1
9728;-555;1
9728;-573;1
9728;-553;1
9728;-572;1
9728;-550;1
9778;-572;1
9778;-556;1
9778;-565;1
9778;-544;1
9778;-558;1
9778;-543;1
9778;-568;1
9778;-559;1
9778;-578;1
9778;-552;1
9778;-575;1
9778;-557;1
9778;-565;1
9778;-544;1
9778;-573;1
9778;-560;1
9778;-553;1
9778;-555;1
9778;-552;1
9778;-551;1
9778;-549;1
9778;-567;1
9778;-564;1
9778;-578;1
9778;-562;1
9778;-560;1
9778;-570;1
9778;-553;1
9778;-555;1
9778;-566;1
9778;-538;1
9778;-538;1
9778;-542;1
9778;-523;1
9778;-559;1
9778;-540;1
9778;-544;1
9778;-549;1
9778;-562;1
9778;-535;1
9778;-546;1
9778;-562;1
9778;-548;1
9778;-563;1
9778;-569;1
9778;-546;1
9778;-567;1
9778;-541;1
9832;-552;1
9832;-551;1
9832;-559;1
9832;-528;1
9832;-523;1
9832;-517;1
9832;-498;1
9832;-512;1
9832;-492;1
9832;-518;1
9832;-538;1
9832;-549;1
9832;-556;1
9832;-559;1
9832;-560;1
9832;-562;1
9832;-572;1
9832;-572;1
9832;-579;1
9832;-565;1
9832;-584;1
9832;-564;1
9832;-580;1
9832;-550;1
9832;-556;1
9832;-559;1
9832;-570;1
9832;-549;1
9832;-557;1
9832;-529;1
9832;-544;1
9832;-521;1
9832;-527;1
9832;-513;1
9832;-532;1
9832;-520;1
9832;-538;1
9832;-548;1
9832;-561;1
9832;-547;1
9832;-568;1
9832;-551;1
9832;-550;1
9832;-559;1
9832;-570;1
9832;-558;1
9832;-576;1
9832;-555;1
9832;-573;1
9832;-549;1
9832;-567;1
9832;-543;1
9832;-541;1
9832;-550;1
9832;-543;1
9832;-530;1
9832;-539;1
9832;-525;1
9832;-512;1
9832;-510;1
9888;-497;1
9888;-493;1
9888;-510;1
9888;-500;1
9888;-549;1
9888;-533;1
9888;-528;1
9888;-532;1
9888;-552;1
9888;-531;1
9888;-569;1
9888;-556;1
9888;-566;1
9888;-581;1
9888;-585;1
9888;-554;1
9888;-572;1
9888;-554;1
9888;-576;1
9888;-555;1
9888;-573;1
9888;-533;1
9888;-547;1
9888;-525;1
9888;-542;1
9888;-538;1
9888;-546;1
9888;-529;1
9888;-546;1
9888;-525;1
9888;-543;1
9888;-546;1
9888;-561;1
9888;-548;1
9888;-546;1
9888;-543;1
9888;-536;1
9888;-535;1
9888;-556;1
9888;-535;1
9888;-554;1
9888;-535;1
9888;-544;1
9888;-541;1
9888;-553;1
9888;-534;1
9888;-542;1
9888;-524;1
9888;-531;1
9888;-535;1
9888;-549;1
9888;-523;1
9888;-544;1
9888;-525;1
9940;-544;1
9940;-525;1
9940;-541;1
9940;-521;1
9940;-543;1
9940;-519;1
9940;-533;1
9940;-527;1
9940;-541;1
9940;-518;1
9940;-545;1
9940;-521;1
9940;-527;1
9940;-509;1
9940;-530;1
9940;-493;1
9940;-488;1
9940;-477;1
9940;-496;1
9940;-470;1
9940;-488;1
9940;-461;1
9940;-492;1
9940;-507;1
9940;-520;1
9940;-539;1
9940;-539;1
9940;-532;1
9940;-568;1
9940;-570;1
9940;-581;1
9940;-560;1
9940;-573;1
9940;-545;1
9940;-569;1
9940;-541;1
9940;-556;1
9940;-539;1
9940;-546;1
9940;-524;1
9940;-535;1
9940;-539;1
9940;-520;1
9940;-528;1
9940;-528;1
9940;-496;1
9940;-519;1
9940;-496;1
9993;-516;1
9993;-507;1
9993;-517;1
9993;-502;1
9993;-508;1
9993;-532;1
9993;-515;1
9993;-511;1
9993;-516;1
9993;-497;1
9993;-514;1
9993;-489;1
9993;-505;1
9993;-484;1
9993;-503;1
9993;-478;1
9993;-490;1
9993;-477;1
9993;-487;1
9993;-490;1
9993;-516;1
9993;-486;1
9993;-497;1
9993;-511;1
9993;-494;1
9993;-495;1
9993;-504;1
9993;-487;1
9993;-487;1
9993;-492;1
9993;-467;1
9993;-478;1
9993;-490;1
9993;-461;1
9993;-476;1
9993;-453;1
9993;-485;1
9993;-472;1
9993;-496;1
9993;-482;1
9993;-495;1
9993;-512;1
9993;-494;1
9993;-507;1
9993;-524;1
9993;-501;1
9993;-519;1
9993;-496;1
9993;-503;1
9993;-505;1
9993;-502;1
9993;-478;1
9993;-498;1
9993;-477;1
10049;-487;1
10049;-453;1
10049;-469;1
10049;-448;1
10049;-447;1
10049;-455;1
10049;-459;1
10049;-454;1
10049;-476;1
10049;-478;1
10049;-488;1
10049;-491;1
10049;-488;1
10049;-491;1
10049;-515;1
10049;-483;1
10049;-502;1
10049;-483;1
10049;-491;1
10049;-479;1
10049;-482;1
10049;-466;1
10049;-483;1
10049;-452;1
10049;-467;1
10049;-465;1
10049;-466;1
10049;-447;1
10049;-471;1
10049;-465;1
10049;-474;1
10049;-474;1
10049;-487;1
10049;-479;1
10049;-503;1
10049;-488;1
10049;-500;1
10049;-495;1
10049;-512;1
10049;-491;1
10049;-499;1
10049;-497;1
10049;-474;1
10049;-494;1
10049;-485;1
10049;-503;1
10049;-511;1
10049;-503;1
10049;-498;1
10049;-497;1
10049;-496;1
10049;-473;1
10049;-489;1
10049;-482;1
10117;-490;1
10117;-481;1
10117;-490;1
10117;-472;1
10117;-499;1
10117;-474;1
10117;-494;1
10117;-474;1
10117;-491;1
10117;-477;1
10117;-488;1
10117;-461;1
10117;-489;1
10117;-471;1
10117;-488;1
10117;-461;1
10117;-469;1
10117;-482;1
10117;-465;1
10117;-466;1
10117;-490;1
10117;-468;1
10117;-492;1
10117;-464;1
10117;-489;1
10117;-469;1
10117;-485;1
10117;-455;1
10117;-478;1
10117;-504;1
10117;-482;1
10117;-499;1
10117;-477;1
10117;-489;1
10117;-489;1
10117;-487;1
10117;-486;1
10117;-484;1
10117;-510;1
10117;-497;1
10117;-490;1
10117;-490;1
10117;-483;1
10117;-488;1
10117;-507;1
10117;-486;1
10117;-506;1
10117;-485;1
10117;-495;1
10117;-481;1
10117;-496;1
10117;-472;1
10117;-484;1
10117;-495;1
10117;-482;1
10117;-491;1
10117;-491;1
10117;-468;1
10117;-476;1
10117;-493;1
10171;-472;1
10171;-480;1
10171;-487;1
10171;-467;1
10171;-476;1
10171;-457;1
10171;-465;1
10171;-451;1
10171;-486;1
10171;-464;1
10171;-466;1
10171;-490;1
10171;-491;1
10171;-529;1
10171;-510;1
10171;-523;1
10171;-527;1
10171;-534;1
10171;-525;1
10171;-524;1
10171;-553;1
10171;-559;1
10171;-597;1
10171;-593;1
10171;-608;1
10171;-590;1
10171;-621;1
10171;-608;1
10171;-651;1
10171;-635;1
10171;-657;1
10171;-655;1
10171;-654;1
10171;-600;1
10171;-564;1
10171;-568;1
10171;-524;1
10171;-489;1
10171;-466;1
10171;-402;1
10171;-400;1
10171;-364;1
10171;-352;1
10171;-316;1
10171;-286;1
10171;-228;1
10171;-242;1
10171;-226;1
10171;-256;1
10171;-194;1
10171;-142;1
10171;-220;1
10171;-271;1
10171;-317;1
10171;-335;1
10171;-364;1
10171;-371;1
10171;-362;1
10171;-401;1
10171;-509;1
10227;-463;1
10227;-466;1
10227;-493;1
10227;-437;1
10227;-541;1
10227;-529;1
10227;-540;1
10227;-567;1
10227;-587;1
10227;-570;1
10227;-572;1
10227;-579;1
10227;-556;1
10227;-545;1
10227;-563;1
10227;-614;1
10227;-570;1
10227;-528;1
10227;-533;1
10227;-477;1
10227;-557;1
10227;-531;1
10227;-550;1
10227;-534;1
10227;-537;1
10227;-509;1
10227;-536;1
10227;-516;1
10227;-529;1
10227;-506;1
10227;-516;1
10227;-596;1
10227;-551;1
10227;-515;1
10227;-514;1
10227;-457;1
10227;-532;1
10227;-523;1
10227;-542;1
10227;-533;1
10227;-533;1
10227;-529;1
10227;-520;1
10227;-512;1
10227;-504;1
10227;-498;1
10227;-526;1
10227;-581;1
10227;-524;1
10227;-496;1
10227;-509;1
10227;-444;1
10227;-528;1
10227;-509;1
10277;-536;1
10277;-527;1
10277;-540;1
10277;-521;1
10277;-535;1
10277;-549;1
10277;-530;1
10277;-538;1
10277;-551;1
10277;-582;1
10277;-536;1
10277;-539;1
10277;-516;1
10277;-478;1
10277;-554;1
10277;-536;1
10277;-553;1
10277;-531;1
10277;-538;1
10277;-543;1
10277;-559;1
10277;-648;1
10277;-675;1
10277;-626;1
10277;-626;1
10277;-598;1
10277;-589;1
10277;-568;1
10277;-563;1
10277;-559;1
10277;-567;1
10277;-559;1
